--- Terminal on COM9 | 460800 8-N-1
--- Available filters and text transformations: colorize, debug, default, direct, hexlify, log2file, nocontrol, printable, send_on_enter, time
--- More details at https://bit.ly/pio-monitor-filters
--- Quit: Ctrl+C | Menu: Ctrl+T | Help: Ctrl+T followed by Ctrl+H
Fully Homed
BEGIN CSV
Time(ms),X_Target(cm),Y_Target(cm),Left_Error(deg),Right_Error(deg),Left_PID,Right_PID,Left_Feed_Forward,Right_Feed_Forward,X_Puck(cm),Y_Puck(cm)
0.01,6.99,5.08,0.04,-0.09,0.04,-0.09,33.60,19.32
1.43,7.00,5.08,0.16,0.07,0.16,0.07,33.91,19.46
2.96,7.02,5.08,0.50,0.55,0.50,0.55,34.23,19.62
4.48,7.05,5.09,0.53,0.20,0.53,0.20,34.54,19.76
6.00,7.10,5.09,1.32,0.74,1.32,0.74,34.83,19.90
7.51,7.16,5.10,1.65,1.58,1.65,1.58,35.12,20.03
9.05,7.24,5.11,2.12,1.25,2.12,1.25,35.39,20.15
10.58,7.33,5.12,2.90,2.28,2.90,2.28,35.65,20.27
12.11,7.44,5.13,2.93,2.82,2.93,2.82,35.89,20.38
13.64,7.55,5.15,4.15,2.67,4.15,2.67,36.12,20.48
15.17,7.68,5.16,4.47,4.02,4.47,4.02,36.34,20.57
16.71,7.83,5.18,4.99,4.09,4.99,4.09,36.55,20.66
18.24,7.98,5.20,6.12,4.76,6.12,4.76,36.74,20.74
19.78,8.15,5.21,6.16,5.88,6.16,5.88,36.92,20.82
21.32,8.33,5.24,7.50,5.98,7.50,5.98,37.09,20.89
22.85,8.52,5.26,7.97,7.18,7.97,7.18,37.24,20.95
24.38,8.73,5.28,8.50,7.86,8.50,7.86,37.38,21.00
25.91,8.94,5.31,9.98,8.07,9.98,8.07,37.50,21.05
27.43,9.16,5.33,9.53,9.58,9.53,9.58,37.62,21.08
28.96,9.40,5.36,11.01,9.88,11.01,9.88,37.72,21.12
30.49,9.64,5.39,11.38,10.46,11.38,10.46,37.80,21.14
32.04,9.90,5.42,11.42,11.61,11.42,11.61,37.88,21.16
33.58,10.17,5.45,12.93,11.52,12.93,11.52,37.94,21.17
35.12,10.45,5.48,12.02,12.43,12.02,12.43,37.99,21.18
36.67,10.74,5.52,13.57,12.85,13.57,12.85,38.02,21.17
38.22,11.04,5.55,13.37,13.03,13.37,13.03,38.04,21.16
39.77,11.35,5.59,13.20,13.84,13.20,13.84,38.05,21.14
41.31,11.67,5.62,14.40,13.88,14.40,13.88,38.04,21.12
42.85,11.99,5.66,13.03,14.19,13.03,14.19,38.02,21.09
44.39,12.32,5.70,14.02,14.33,14.02,14.33,37.99,21.05
45.92,12.67,5.74,13.67,14.22,13.67,14.22,37.94,21.00
47.47,13.02,5.78,12.98,14.52,12.98,14.52,37.88,20.95
49.03,13.38,5.82,13.52,14.54,13.52,14.54,37.81,20.89
50.58,13.75,5.86,12.30,14.78,12.30,14.78,37.72,20.82
52.12,14.12,5.91,12.66,14.53,12.66,14.53,37.62,20.75
53.68,14.51,5.95,11.79,14.46,11.79,14.46,37.51,20.66
55.23,14.90,6.00,11.09,14.47,11.09,14.47,37.38,20.57
56.77,15.29,6.04,10.85,14.27,10.85,14.27,37.24,20.48
58.32,15.70,6.09,9.94,14.34,9.94,14.34,37.09,20.37
59.86,16.11,6.14,9.30,13.79,9.30,13.79,36.92,20.26
61.41,16.52,6.19,8.39,13.63,8.39,13.63,36.74,20.15
62.95,16.94,6.24,7.87,13.51,7.87,13.51,36.54,20.02
64.50,17.37,6.28,6.77,12.83,6.77,12.83,36.34,19.89
66.04,17.80,6.33,6.37,12.64,6.37,12.64,36.12,19.75
67.59,18.24,6.39,5.36,12.32,5.36,12.32,35.88,19.60
69.13,18.68,6.44,4.45,11.95,4.45,11.95,35.63,19.45
70.68,19.13,6.49,3.84,11.77,3.84,11.77,35.37,19.29
72.24,19.58,6.54,2.47,11.28,2.47,11.28,35.10,19.12
73.78,20.04,6.59,1.90,11.01,1.90,11.01,34.81,18.94
75.31,20.49,6.65,0.97,10.80,0.97,10.80,34.51,18.76
76.84,20.95,6.70,0.11,10.38,0.11,10.38,34.20,18.57
78.39,21.42,6.75,-0.43,10.07,-0.43,10.07,33.87,18.38
79.93,21.89,6.81,-1.38,9.71,-1.38,9.71,33.53,18.17
81.48,22.36,6.86,-2.00,9.31,-2.00,9.31,33.17,17.96
83.03,22.84,6.92,-2.63,9.33,-2.63,9.33,32.80,17.74
84.58,23.32,6.98,-3.26,9.13,-3.26,9.13,32.42,17.52
86.14,23.80,7.03,-3.99,8.84,-3.99,8.84,32.02,17.28
87.69,24.29,7.09,-4.48,8.71,-4.48,8.71,31.61,17.04
89.24,24.77,7.14,-4.95,8.44,-4.95,8.44,31.19,16.80
90.79,25.26,7.20,-5.43,8.23,-5.43,8.23,30.75,16.54
92.34,25.75,7.26,-5.79,8.15,-5.79,8.15,30.30,16.28
93.88,26.24,7.31,-6.26,8.07,-6.26,8.07,29.84,16.01
95.43,26.73,7.37,-6.68,7.83,-6.68,7.83,29.36,15.74
96.98,27.22,7.43,-7.04,7.91,-7.04,7.91,28.87,15.45
98.54,27.72,7.49,-7.31,7.64,-7.31,7.64,28.36,15.16
100.08,28.21,7.54,-7.74,7.54,-7.74,7.54,27.85,14.86
101.64,28.70,7.60,-7.91,7.43,-7.91,7.43,27.32,14.56
103.18,29.19,7.66,-8.29,7.20,-8.29,7.20,26.77,14.24
104.73,29.69,7.71,-8.53,7.23,-8.53,7.23,26.21,13.92
106.29,30.18,7.77,-8.48,7.09,-8.48,7.09,25.64,13.60
107.83,30.67,7.83,-8.88,7.14,-8.88,7.14,25.06,13.26
109.38,31.15,7.88,-8.66,7.16,-8.66,7.16,24.46,12.92
110.93,31.64,7.94,-8.70,7.10,-8.70,7.10,23.85,12.57
112.48,32.13,8.00,-8.61,7.38,-8.61,7.38,23.22,12.22
114.03,32.61,8.05,-8.55,7.36,-8.55,7.36,22.58,11.86
115.58,33.10,8.11,-8.39,7.50,-8.39,7.50,21.93,11.48
117.13,33.57,8.17,-8.12,7.87,-8.12,7.87,21.26,11.11
118.68,34.05,8.22,-7.82,7.86,-7.82,7.86,20.58,10.72
120.23,34.53,8.28,-7.66,8.11,-7.66,8.11,19.89,10.33
121.78,35.00,8.33,-7.36,8.35,-7.36,8.35,19.18,9.93
123.33,35.46,8.38,-6.96,8.30,-6.96,8.30,18.46,9.53
124.87,35.93,8.44,-6.69,8.53,-6.69,8.53,17.73,9.12
126.43,36.39,8.49,-6.34,8.58,-6.34,8.58,16.98,8.69
127.98,36.85,8.55,-5.96,8.62,-5.96,8.62,16.22,8.27
129.53,37.30,8.60,-5.76,8.67,-5.76,8.67,15.45,7.83
131.07,37.74,8.65,-5.30,8.64,-5.30,8.64,14.66,7.39
132.62,38.18,8.70,-5.19,8.77,-5.19,8.77,13.86,6.94
134.16,38.62,8.75,-4.86,8.71,-4.86,8.71,13.05,6.49
135.71,39.05,8.80,-4.49,8.70,-4.49,8.70,12.23,6.02
137.25,39.48,8.85,-4.35,8.58,-4.35,8.58,11.39,5.56
138.80,39.90,8.90,-3.99,8.47,-3.99,8.47,10.53,5.08
140.34,40.31,8.95,-3.87,8.30,-3.87,8.30,9.67,4.60
141.89,40.72,8.99,-3.67,8.05,-3.67,8.05,8.79,4.10
143.43,41.12,9.04,-3.42,7.86,-3.42,7.86,7.90,3.61
144.96,41.51,9.09,-3.29,7.65,-3.29,7.65,7.00,3.11
146.50,41.90,9.13,-3.01,7.39,-3.01,7.39,6.08,2.59
148.04,42.28,9.18,-2.83,7.05,-2.83,7.05,5.15,2.08
149.58,42.65,9.22,-2.84,6.77,-2.84,6.77,4.21,1.55
151.14,43.02,9.26,-2.65,6.52,-2.65,6.52,3.25,1.02
152.67,43.38,9.30,-2.52,6.12,-2.52,6.12,2.28,0.48
154.22,43.73,9.34,-2.33,5.76,-2.33,5.76,1.29,-0.07
155.77,44.07,9.38,-2.29,5.37,-2.29,5.37,0.29,-0.63
157.32,44.41,9.42,-2.09,5.08,-2.09,5.08,-0.73,-1.19
158.86,44.74,9.46,-1.95,4.82,-1.95,4.82,-1.75,-1.76
160.42,45.06,9.50,-1.79,4.47,-1.79,4.47,-2.80,-2.34
161.97,45.36,9.53,-1.66,4.24,-1.66,4.24,-3.86,-2.93
163.53,45.66,9.57,-1.54,3.83,-1.54,3.83,-4.94,-3.53
165.09,45.95,9.60,-1.38,3.59,-1.38,3.59,-6.02,-4.13
166.63,46.23,9.63,-1.12,3.44,-1.12,3.44,-7.12,-4.73
168.20,46.50,9.67,-1.03,3.04,-1.03,3.04,-8.24,-5.35
169.74,46.76,9.70,-0.82,2.87,-0.82,2.87,-9.36,-5.97
171.29,47.01,9.72,-0.63,2.70,-0.63,2.70,-10.50,-6.60
172.84,47.25,9.75,-0.61,2.47,-0.61,2.47,-11.64,-7.24
174.40,47.47,9.78,-0.19,2.51,-0.19,2.51,-12.82,-7.89
175.96,47.69,9.80,-0.10,2.26,-0.10,2.26,-14.00,-8.54
177.50,47.89,9.83,0.22,2.21,0.22,2.21,-15.19,-9.19
179.04,48.08,9.85,0.51,2.17,0.51,2.17,-16.39,-9.86
180.58,48.26,9.87,0.65,2.02,0.65,2.02,-17.59,-10.52
182.12,48.42,9.89,1.22,2.04,1.22,2.04,-18.82,-11.20
183.66,48.58,9.91,1.26,2.11,1.26,2.11,-20.06,-11.88
185.21,48.72,9.92,1.78,2.27,1.78,2.27,-21.32,-12.58
186.77,48.85,9.94,1.96,2.40,1.96,2.40,-22.60,-13.28
188.32,48.96,9.95,2.24,2.44,2.24,2.44,-23.88,-13.99
189.87,49.06,9.96,2.85,2.60,2.85,2.60,-25.19,-14.70
191.42,49.15,9.97,2.81,2.81,2.81,2.81,-26.50,-15.43
192.97,49.23,9.98,3.85,3.03,3.85,3.03,-27.82,-16.16
194.52,49.29,9.99,3.91,3.32,3.91,3.32,-29.16,-16.89
196.08,49.33,9.99,4.24,3.61,4.24,3.61,-30.52,-17.64
197.63,49.36,10.00,4.93,3.94,4.93,3.94,-31.89,-18.39
199.18,49.38,10.00,4.76,4.21,4.76,4.21,-33.28,-19.15
200.73,49.38,10.00,5.78,4.33,5.78,4.33,-6.61,-11.80
202.17,49.38,10.00,5.90,4.73,5.90,4.73,-6.65,-11.97
203.72,49.37,10.00,6.61,5.16,6.61,5.16,-6.68,-12.16
205.27,49.36,10.00,6.91,5.50,6.91,5.50,-6.72,-12.35
206.80,49.34,10.01,7.23,5.74,7.23,5.74,-6.75,-12.54
208.35,49.32,10.01,7.63,5.96,7.63,5.96,-6.77,-12.72
209.90,49.29,10.01,8.10,6.01,8.10,6.01,-6.79,-12.90
211.44,49.26,10.02,8.32,5.91,8.32,5.91,-6.81,-13.09
212.99,49.22,10.02,8.36,5.84,8.36,5.84,-6.83,-13.27
214.54,49.18,10.03,8.36,5.55,8.36,5.55,-6.83,-13.45
216.09,49.13,10.04,8.25,5.32,8.25,5.32,-6.84,-13.63
217.63,49.08,10.04,7.99,4.96,7.99,4.96,-6.84,-13.80
219.19,49.02,10.05,7.76,4.57,7.76,4.57,-6.84,-13.98
220.73,48.96,10.06,7.36,3.96,7.36,3.96,-6.83,-14.15
222.29,48.89,10.07,7.00,3.32,7.00,3.32,-6.82,-14.33
223.83,48.82,10.08,6.48,2.49,6.48,2.49,-6.80,-14.50
225.38,48.75,10.10,5.75,1.77,5.75,1.77,-6.78,-14.67
226.93,48.67,10.11,5.22,0.98,5.22,0.98,-6.76,-14.84
228.48,48.59,10.12,4.30,0.01,4.30,0.01,-6.73,-15.01
230.02,48.50,10.14,3.63,-0.80,3.63,-0.80,-6.70,-15.18
231.55,48.41,10.16,2.79,-1.86,2.79,-1.86,-6.66,-15.34
233.13,48.31,10.17,1.84,-3.02,1.84,-3.02,-6.62,-15.51
234.67,48.21,10.19,1.13,-3.92,1.13,-3.92,-6.57,-15.67
236.24,48.11,10.21,-0.15,-5.16,-0.15,-5.16,-6.52,-15.83
237.80,48.00,10.23,-0.91,-6.20,-0.91,-6.20,-6.47,-16.00
239.35,47.89,10.26,-2.10,-7.24,-2.10,-7.24,-6.41,-16.16
240.92,47.77,10.28,-3.16,-8.56,-3.16,-8.56,-6.35,-16.32
242.49,47.65,10.31,-3.81,-9.44,-3.81,-9.44,-6.28,-16.48
244.07,47.52,10.33,-5.38,-10.67,-5.38,-10.67,-6.21,-16.63
245.64,47.39,10.36,-5.54,-11.60,-5.54,-11.60,-6.13,-16.79
247.21,47.26,10.39,-7.10,-12.35,-7.10,-12.35,-6.05,-16.95
248.79,47.13,10.42,-7.34,-13.39,-7.34,-13.39,-5.97,-17.10
250.36,46.99,10.45,-8.26,-13.85,-8.26,-13.85,-5.88,-17.25
251.95,46.84,10.48,-8.88,-14.87,-8.88,-14.87,-5.78,-17.41
253.52,46.69,10.52,-8.99,-15.29,-8.99,-15.29,-5.69,-17.56
255.10,46.54,10.55,-10.14,-15.76,-10.14,-15.76,-5.58,-17.71
256.68,46.39,10.59,-9.75,-16.41,-9.75,-16.41,-5.48,-17.85
258.26,46.23,10.63,-10.80,-16.28,-10.80,-16.28,-5.37,-18.00
259.83,46.07,10.67,-10.53,-17.07,-10.53,-17.07,-5.25,-18.14
261.40,45.91,10.71,-10.73,-16.75,-10.73,-16.75,-5.13,-18.29
262.98,45.74,10.76,-10.96,-16.68,-10.96,-16.68,-5.01,-18.43
264.56,45.57,10.80,-10.39,-16.87,-10.39,-16.87,-4.88,-18.57
266.15,45.40,10.85,-10.83,-16.19,-10.83,-16.19,-4.75,-18.71
267.73,45.23,10.90,-9.90,-16.53,-9.90,-16.53,-4.61,-18.85
269.30,45.05,10.95,-10.01,-15.61,-10.01,-15.61,-4.47,-18.99
270.88,44.87,11.00,-9.44,-15.11,-9.44,-15.11,-4.32,-19.12
272.45,44.68,11.05,-8.67,-14.68,-8.67,-14.68,-4.18,-19.26
274.03,44.50,11.11,-8.40,-13.45,-8.40,-13.45,-4.02,-19.39
275.60,44.31,11.17,-7.34,-13.33,-7.34,-13.33,-3.86,-19.52
277.17,44.12,11.23,-6.84,-12.26,-6.84,-12.26,-3.70,-19.65
278.74,43.93,11.29,-5.85,-11.12,-5.85,-11.12,-3.53,-19.78
280.31,43.73,11.35,-5.13,-10.63,-5.13,-10.63,-3.36,-19.91
281.90,43.53,11.41,-4.32,-9.05,-4.32,-9.05,-3.19,-20.04
283.46,43.33,11.48,-3.23,-8.26,-3.23,-8.26,-3.01,-20.16
285.03,43.13,11.55,-2.40,-7.16,-2.40,-7.16,-2.83,-20.28
286.59,42.93,11.62,-1.42,-5.87,-1.42,-5.87,-2.64,-20.41
288.18,42.72,11.69,-0.41,-5.15,-0.41,-5.15,-2.45,-20.53
289.75,42.51,11.76,0.40,-3.85,0.40,-3.85,-2.25,-20.65
291.30,42.30,11.84,1.34,-2.83,1.34,-2.83,-2.05,-20.76
292.86,42.09,11.91,2.21,-1.81,2.21,-1.81,-1.85,-20.88
294.42,41.88,11.99,2.88,-0.77,2.88,-0.77,-1.64,-21.00
295.97,41.67,12.07,3.83,0.02,3.83,0.02,-1.43,-21.11
297.52,41.45,12.16,4.54,0.93,4.54,0.93,-1.21,-21.22
299.07,41.24,12.24,5.13,1.82,5.13,1.82,-0.99,-21.33
300.61,41.02,12.33,5.77,2.44,5.77,2.44,-0.77,-21.44
302.16,40.80,12.42,6.21,3.13,6.21,3.13,-0.54,-21.55
303.71,40.58,12.51,6.57,3.75,6.57,3.75,-0.31,-21.65
305.26,40.36,12.60,6.84,4.28,6.84,4.28,-0.08,-21.76
306.81,40.14,12.69,7.12,4.57,7.12,4.57,0.16,-21.86
308.35,39.91,12.79,7.29,4.83,7.29,4.83,0.41,-21.96
309.90,39.69,12.89,7.24,5.07,7.24,5.07,0.65,-22.06
311.43,39.47,12.99,7.22,5.15,7.22,5.15,0.90,-22.16
312.97,39.24,13.09,7.14,5.21,7.14,5.21,1.16,-22.26
314.52,39.01,13.20,6.83,5.01,6.83,5.01,1.42,-22.36
316.06,38.78,13.31,6.48,4.90,6.48,4.90,1.68,-22.45
317.61,38.55,13.42,5.96,4.55,5.96,4.55,1.95,-22.55
319.15,38.32,13.53,5.52,4.14,5.52,4.14,2.22,-22.64
320.70,38.09,13.65,5.02,3.62,5.02,3.62,2.50,-22.73
322.24,37.86,13.76,4.08,2.97,4.08,2.97,2.78,-22.82
323.79,37.63,13.88,3.35,2.24,3.35,2.24,3.07,-22.91
325.33,37.39,14.00,2.42,1.58,2.42,1.58,3.35,-23.00
326.87,37.16,14.13,1.61,0.68,1.61,0.68,3.65,-23.09
328.41,36.93,14.25,0.70,-0.11,0.70,-0.11,3.94,-23.17
329.95,36.70,14.38,-0.62,-0.95,-0.62,-0.95,4.24,-23.26
331.50,36.46,14.52,-1.30,-2.06,-1.30,-2.06,4.55,-23.34
333.06,36.22,14.65,-2.54,-2.81,-2.54,-2.81,4.86,-23.42
334.62,35.98,14.79,-3.60,-4.04,-3.60,-4.04,5.18,-23.51
336.19,35.75,14.93,-4.49,-4.91,-4.49,-4.91,5.50,-23.59
337.76,35.51,15.08,-5.88,-5.57,-5.88,-5.57,5.83,-23.67
339.32,35.27,15.22,-6.29,-6.92,-6.29,-6.92,6.16,-23.74
340.90,35.03,15.37,-7.76,-7.59,-7.76,-7.59,6.50,-23.82
342.45,34.79,15.52,-8.22,-8.61,-8.22,-8.61,6.84,-23.89
344.02,34.55,15.68,-9.35,-9.40,-9.35,-9.40,7.18,-23.97
345.58,34.32,15.84,-10.37,-9.99,-10.37,-9.99,7.53,-24.04
347.15,34.08,16.00,-10.35,-10.99,-10.35,-10.99,7.88,-24.11
348.72,33.84,16.16,-11.88,-11.60,-11.88,-11.60,8.24,-24.18
350.28,33.60,16.33,-11.48,-12.07,-11.48,-12.07,8.60,-24.25
351.85,33.36,16.50,-12.50,-12.77,-12.50,-12.77,8.96,-24.32
353.42,33.13,16.67,-12.66,-13.22,-12.66,-13.22,9.33,-24.38
355.00,32.89,16.84,-12.70,-13.27,-12.70,-13.27,9.71,-24.45
356.57,32.65,17.02,-13.66,-13.72,-13.66,-13.72,10.09,-24.51
358.14,32.42,17.20,-12.72,-13.69,-12.72,-13.69,10.47,-24.57
359.73,32.18,17.39,-13.79,-13.84,-13.79,-13.84,10.86,-24.64
361.31,31.95,17.58,-12.84,-14.10,-12.84,-14.10,11.26,-24.70
362.88,31.71,17.77,-13.16,-13.59,-13.16,-13.59,11.66,-24.75
364.46,31.48,17.96,-12.95,-14.05,-12.95,-14.05,12.06,-24.81
366.04,31.25,18.16,-12.15,-13.60,-12.15,-13.60,12.47,-24.87
367.61,31.02,18.36,-12.66,-13.30,-12.66,-13.30,12.88,-24.92
369.18,30.79,18.56,-11.15,-13.68,-11.15,-13.68,13.29,-24.97
370.76,30.56,18.77,-11.74,-12.69,-11.74,-12.69,13.71,-25.03
372.34,30.34,18.98,-10.55,-13.05,-10.55,-13.05,14.14,-25.08
373.92,30.11,19.19,-10.27,-12.43,-10.27,-12.43,14.57,-25.13
375.51,29.89,19.41,-10.04,-11.72,-10.04,-11.72,15.00,-25.17
377.08,29.66,19.63,-8.73,-11.76,-8.73,-11.76,15.44,-25.22
378.66,29.44,19.85,-8.96,-10.65,-8.96,-10.65,15.88,-25.27
380.23,29.22,20.08,-7.29,-10.60,-7.29,-10.60,16.32,-25.31
381.81,29.01,20.31,-7.34,-9.99,-7.34,-9.99,16.77,-25.35
383.37,28.79,20.54,-6.41,-9.34,-6.41,-9.34,17.22,-25.39
384.94,28.58,20.77,-5.57,-9.08,-5.57,-9.08,17.68,-25.43
386.51,28.37,21.01,-5.43,-8.37,-5.43,-8.37,18.14,-25.47
388.07,28.16,21.25,-4.00,-7.99,-4.00,-7.99,18.60,-25.51
389.63,27.95,21.50,-4.03,-7.65,-4.03,-7.65,19.07,-25.54
391.20,27.75,21.75,-3.04,-7.20,-3.04,-7.20,19.54,-25.58
392.76,27.54,22.00,-2.47,-6.78,-2.47,-6.78,20.02,-25.61
394.32,27.34,22.25,-1.98,-6.37,-1.98,-6.37,20.50,-25.64
395.89,27.14,22.51,-1.17,-5.89,-1.17,-5.89,20.98,-25.67
397.46,26.95,22.77,-1.00,-5.60,-1.00,-5.60,21.48,-25.70
399.02,26.75,23.04,-0.17,-5.33,-0.17,-5.33,21.97,-25.73
400.58,26.56,23.31,0.15,-5.02,0.15,-5.02,22.46,-25.76
402.13,26.37,23.58,0.69,-4.79,0.69,-4.79,22.96,-25.78
403.69,26.19,23.85,0.96,-4.56,0.96,-4.56,23.47,-25.80
405.23,26.01,24.13,1.20,-4.53,1.20,-4.53,23.97,-25.83
406.79,25.83,24.41,1.64,-4.34,1.64,-4.34,24.48,-25.85
408.35,25.65,24.70,1.76,-4.37,1.76,-4.37,25.00,-25.87
409.90,25.47,24.98,2.03,-4.28,2.03,-4.28,25.52,-25.89
411.45,25.30,25.28,2.06,-4.26,2.06,-4.26,26.04,-25.90
413.00,25.13,25.57,2.36,-4.42,2.36,-4.42,26.56,-25.92
414.56,24.96,25.87,2.13,-4.40,2.13,-4.40,27.10,-25.93
416.11,24.80,26.18,2.26,-4.56,2.26,-4.56,27.64,-25.95
417.67,24.64,26.48,2.23,-4.75,2.23,-4.75,28.18,-25.96
419.23,24.48,26.80,1.81,-4.87,1.81,-4.87,28.72,-25.97
420.79,24.32,27.11,1.93,-5.25,1.93,-5.25,29.27,-25.98
422.35,24.17,27.43,1.38,-5.55,1.38,-5.55,29.83,-25.99
423.91,24.02,27.76,1.33,-5.92,1.33,-5.92,30.39,-25.99
425.46,23.88,28.08,0.98,-6.32,0.98,-6.32,30.95,-26.00
427.01,23.74,28.41,0.50,-6.66,0.50,-6.66,31.51,-26.00
428.55,23.60,28.74,0.30,-7.05,0.30,-7.05,32.08,-26.01
430.09,23.47,29.08,-0.30,-7.36,-0.30,-7.36,32.65,-26.01
431.64,23.33,29.42,-0.66,-7.79,-0.66,-7.79,33.22,-26.01
433.20,23.21,29.77,-1.07,-8.26,-1.07,-8.26,33.81,-26.01
434.77,23.08,30.12,-1.50,-8.68,-1.50,-8.68,34.40,-26.01
436.32,22.96,30.48,-1.87,-9.02,-1.87,-9.02,34.99,-26.00
437.88,22.84,30.84,-2.48,-9.38,-2.48,-9.38,35.59,-26.00
439.44,22.73,31.20,-3.00,-9.69,-3.00,-9.69,36.19,-25.99
441.01,22.62,31.57,-3.44,-9.91,-3.44,-9.91,36.80,-25.99
442.57,22.52,31.94,-3.88,-10.26,-3.88,-10.26,37.41,-25.98
444.13,22.41,32.32,-4.22,-10.66,-4.22,-10.66,38.03,-25.97
445.71,22.32,32.70,-4.74,-10.82,-4.74,-10.82,38.65,-25.96
447.27,22.22,33.09,-5.07,-11.03,-5.07,-11.03,39.28,-25.94
448.83,22.13,33.48,-5.50,-11.20,-5.50,-11.20,39.91,-25.93
450.40,22.05,33.87,-5.84,-11.13,-5.84,-11.13,40.54,-25.91
451.97,21.97,34.27,-6.26,-11.21,-6.26,-11.21,41.18,-25.90
453.53,21.89,34.68,-6.50,-11.12,-6.50,-11.12,41.82,-25.88
455.11,21.82,35.09,-6.76,-11.19,-6.76,-11.19,42.47,-25.86
456.67,21.75,35.50,-7.02,-11.07,-7.02,-11.07,43.12,-25.84
458.24,21.69,35.92,-7.34,-10.99,-7.34,-10.99,43.78,-25.82
459.82,21.63,36.34,-7.52,-10.65,-7.52,-10.65,44.44,-25.80
461.39,21.58,36.77,-7.64,-10.47,-7.64,-10.47,45.11,-25.77
462.97,21.53,37.20,-7.91,-10.26,-7.91,-10.26,45.78,-25.75
464.55,21.49,37.64,-7.77,-9.95,-7.77,-9.95,46.46,-25.72
466.12,21.45,38.08,-7.94,-9.62,-7.94,-9.62,47.14,-25.69
467.69,21.42,38.53,-7.55,-9.22,-7.55,-9.22,47.83,-25.66
469.26,21.39,38.98,-7.87,-8.78,-7.87,-8.78,48.51,-25.63
470.83,21.37,39.43,-7.78,-8.23,-7.78,-8.23,49.20,-25.60
472.40,21.35,39.89,-7.76,-8.06,-7.76,-8.06,49.90,-25.56
473.96,21.34,40.35,-7.89,-7.49,-7.89,-7.49,50.59,-25.53
475.53,21.33,40.82,-7.41,-7.15,-7.41,-7.15,51.30,-25.49
477.10,21.33,41.29,-7.73,-6.91,-7.73,-6.91,52.01,-25.46
478.67,21.33,41.77,-7.01,-6.07,-7.01,-6.07,52.72,-25.42
480.23,21.34,42.25,-7.35,-6.13,-7.35,-6.13,53.43,-25.38
481.80,21.36,42.74,-7.11,-5.37,-7.11,-5.37,54.16,-25.33
483.37,21.38,43.23,-6.91,-4.88,-6.91,-4.88,54.88,-25.29
484.94,21.40,43.73,-6.68,-4.69,-6.68,-4.69,55.61,-25.25
486.51,21.44,44.23,-6.40,-3.62,-6.40,-3.62,56.34,-25.20
488.08,21.47,44.73,-5.98,-3.89,-5.98,-3.89,57.08,-25.16
489.64,21.52,45.24,-5.76,-3.23,-5.76,-3.23,57.82,-25.11
491.22,21.57,45.76,-5.27,-2.73,-5.27,-2.73,58.58,-25.06
492.79,21.62,46.28,-4.70,-2.59,-4.70,-2.59,59.33,-25.01
494.36,21.69,46.81,-5.14,-1.60,-5.14,-1.60,60.08,-24.96
495.93,21.75,47.34,-3.72,-1.46,-3.72,-1.46,60.84,-24.90
497.49,21.83,47.88,-4.69,-1.06,-4.69,-1.06,61.60,-24.85
499.06,21.91,48.42,-2.84,-0.52,-2.84,-0.52,62.37,-24.79
500.63,21.99,48.96,-3.44,-0.26,-3.44,-0.26,63.14,-24.73
502.20,22.00,49.00,-12.54,6.86,-12.54,6.86,-33.20,58.89
503.72,22.09,49.53,-11.67,7.54,-11.67,7.54,-33.39,58.91
505.29,22.18,50.05,-11.87,8.38,-11.87,8.38,-33.59,58.93
506.85,22.28,50.55,-12.24,7.60,-12.24,7.60,-33.78,58.94
508.42,22.38,51.04,-10.21,7.64,-10.21,7.64,-33.96,58.95
509.99,22.48,51.51,-11.78,8.86,-11.78,8.86,-34.14,58.95
511.56,22.59,51.96,-11.24,8.83,-11.24,8.83,-34.31,58.94
513.13,22.69,52.40,-12.62,11.37,-12.62,11.37,-34.48,58.93
514.69,22.80,52.82,-13.37,12.34,-13.37,12.34,-34.63,58.90
516.27,22.91,53.22,-14.06,13.48,-14.06,13.48,-34.79,58.88
517.84,23.03,53.61,-13.71,15.07,-13.71,15.07,-34.93,58.84
519.41,23.15,53.98,-13.95,13.71,-13.95,13.71,-35.07,58.80
520.98,23.26,54.34,-13.40,15.85,-13.40,15.85,-35.21,58.76
522.55,23.39,54.68,-14.15,16.45,-14.15,16.45,-35.33,58.71
524.13,23.51,55.00,-15.41,17.55,-15.41,17.55,-35.46,58.65
525.71,23.64,55.31,-14.67,19.97,-14.67,19.97,-35.57,58.58
527.28,23.77,55.60,-16.84,19.59,-16.84,19.59,-35.68,58.51
528.83,23.89,55.87,-15.16,21.84,-15.16,21.84,-35.78,58.43
530.41,24.03,56.13,-17.29,22.42,-17.29,22.42,-35.88,58.34
531.98,24.16,56.38,-16.30,22.72,-16.30,22.72,-35.97,58.25
533.55,24.30,56.61,-15.79,24.98,-15.79,24.98,-36.05,58.15
535.11,24.44,56.83,-18.03,24.71,-18.03,24.71,-36.13,58.05
536.68,24.58,57.03,-15.85,26.65,-15.85,26.65,-36.20,57.94
538.25,24.72,57.21,-18.72,27.49,-18.72,27.49,-36.27,57.82
539.82,24.87,57.39,-17.03,27.54,-17.03,27.54,-36.32,57.70
541.39,25.01,57.55,-18.43,29.54,-18.43,29.54,-36.38,57.57
542.97,25.16,57.69,-18.81,28.95,-18.81,28.95,-36.42,57.43
544.54,25.31,57.82,-17.33,29.96,-17.33,29.96,-36.46,57.28
546.12,25.46,57.94,-19.34,30.69,-19.34,30.69,-36.50,57.13
547.69,25.62,58.04,-17.77,30.03,-17.77,30.03,-36.52,56.98
549.26,25.78,58.13,-19.56,31.53,-19.56,31.53,-36.55,56.81
550.84,25.93,58.21,-19.22,30.64,-19.22,30.64,-36.56,56.64
552.41,26.09,58.27,-18.89,30.69,-18.89,30.69,-36.57,56.47
553.99,26.25,58.32,-20.11,31.33,-20.11,31.33,-36.57,56.28
555.55,26.42,58.36,-19.20,29.76,-19.20,29.76,-36.57,56.09
557.12,26.58,58.39,-20.44,30.42,-20.44,30.42,-36.56,55.90
558.69,26.75,58.40,-19.91,29.55,-19.91,29.55,-36.54,55.70
