--- Terminal on COM9 | 460800 8-N-1
--- Available filters and text transformations: colorize, debug, default, direct, hexlify, log2file, nocontrol, printable, send_on_enter, time
--- More details at https://bit.ly/pio-monitor-filters
--- Quit: Ctrl+C | Menu: Ctrl+T | Help: Ctrl+T followed by Ctrl+H
Fully Homed
BEGIN CSV
Time(ms),X_Target(cm),Y_Target(cm),Left_Error(deg),Right_Error(deg),Left_PID,Right_PID,Left_Feed_Forward,Right_Feed_Forward
0.00,0.00,0.00,-197.59,-31.33,-197.59,-31.33,41.30,12.39
1.22,0.00,0.00,-197.49,-31.21,-197.49,-31.21,41.56,12.55
2.69,0.02,0.01,-197.10,-31.04,-197.10,-31.04,41.85,12.75
4.15,0.05,0.01,-196.44,-30.62,-196.44,-30.62,42.13,12.94
5.62,0.10,0.02,-195.60,-30.01,-195.60,-30.01,42.40,13.13
7.08,0.16,0.04,-194.43,-29.31,-194.43,-29.31,42.66,13.31
8.54,0.23,0.05,-192.91,-28.44,-192.91,-28.44,42.90,13.48
10.01,0.31,0.07,-191.29,-27.32,-191.29,-27.32,43.12,13.65
11.47,0.41,0.09,-189.42,-26.16,-189.42,-26.16,43.34,13.81
12.95,0.52,0.12,-187.15,-24.81,-187.15,-24.81,43.54,13.97
14.42,0.64,0.15,-184.69,-23.27,-184.69,-23.27,43.73,14.12
15.89,0.77,0.18,-181.97,-21.56,-181.97,-21.56,43.90,14.27
17.37,0.92,0.21,-179.10,-19.82,-179.10,-19.82,44.06,14.41
18.83,1.07,0.25,-175.96,-17.85,-175.96,-17.85,44.21,14.55
20.30,1.24,0.29,-172.54,-15.72,-172.54,-15.72,44.34,14.67
21.78,1.42,0.33,-168.99,-13.45,-168.99,-13.45,44.46,14.80
23.26,1.61,0.37,-165.21,-11.05,-165.21,-11.05,44.57,14.92
24.73,1.81,0.42,-161.13,-8.59,-161.13,-8.59,44.66,15.03
26.20,2.02,0.47,-156.83,-5.89,-156.83,-5.89,44.74,15.13
27.67,2.24,0.52,-152.40,-3.12,-152.40,-3.12,44.80,15.24
29.13,2.47,0.57,-147.82,-0.24,-147.82,-0.24,44.86,15.33
30.59,2.71,0.63,-142.95,2.76,-142.95,2.76,44.89,15.42
32.05,2.96,0.69,-137.79,5.89,-137.79,5.89,44.92,15.50
33.50,3.22,0.75,-132.67,9.11,-132.67,9.11,44.93,15.58
34.97,3.48,0.81,-127.29,12.45,-127.29,12.45,44.93,15.65
36.43,3.76,0.87,-121.68,15.90,-121.68,15.90,44.91,15.72
37.89,4.04,0.94,-115.96,19.50,-115.96,19.50,44.88,15.78
39.35,4.34,1.01,-110.10,23.23,-110.10,23.23,44.84,15.83
40.81,4.64,1.08,-104.01,26.97,-104.01,26.97,44.78,15.88
42.27,4.95,1.15,-97.62,30.85,-97.62,30.85,44.71,15.92
43.73,5.27,1.23,-91.24,34.86,-91.24,34.86,44.63,15.96
45.19,5.59,1.30,-84.76,39.02,-84.76,39.02,44.53,15.99
46.64,5.92,1.38,-78.08,43.14,-78.08,43.14,44.42,16.02
48.10,6.26,1.46,-71.14,47.42,-71.14,47.42,44.30,16.04
49.55,6.61,1.54,-64.22,51.79,-64.22,51.79,44.16,16.06
51.02,6.97,1.62,-57.06,56.19,-57.06,56.19,44.01,16.07
52.47,7.33,1.70,-49.70,60.71,-49.70,60.71,43.85,16.07
53.93,7.69,1.79,-42.43,65.30,-42.43,65.30,43.67,16.07
55.38,8.06,1.88,-34.90,70.07,-34.90,70.07,43.48,16.06
56.83,8.44,1.96,-27.28,74.70,-27.28,74.70,43.28,16.05
58.29,8.83,2.05,-19.45,79.59,-19.45,79.59,43.07,16.03
59.74,9.22,2.14,-11.68,84.50,-11.68,84.50,42.84,16.01
61.20,9.61,2.24,-3.64,89.47,-3.64,89.47,42.59,15.98
62.66,10.02,2.33,4.54,94.55,4.54,94.55,42.34,15.94
64.11,10.42,2.42,12.63,99.67,12.63,99.67,42.07,15.90
65.55,10.83,2.52,20.94,104.70,20.94,104.70,41.79,15.86
67.01,11.25,2.62,29.31,109.97,29.31,109.97,41.49,15.80
68.47,11.67,2.71,37.85,115.27,37.85,115.27,41.18,15.75
69.94,12.10,2.81,46.51,120.69,46.51,120.69,40.85,15.68
71.39,12.52,2.91,55.04,126.05,55.04,126.05,40.52,15.62
72.84,12.95,3.01,63.85,131.44,63.85,131.44,40.17,15.54
74.30,13.39,3.11,72.65,137.06,72.65,137.06,39.81,15.46
75.75,13.83,3.22,81.56,142.50,81.56,142.50,39.43,15.38
77.21,14.28,3.32,90.45,148.04,90.45,148.04,39.04,15.29
78.67,14.72,3.42,99.49,153.64,99.49,153.64,38.64,15.19
80.13,15.18,3.53,108.59,159.30,108.59,159.30,38.22,15.09
81.58,15.63,3.63,117.75,165.02,117.75,165.02,37.79,14.98
83.05,16.08,3.74,126.96,170.79,126.96,170.79,37.34,14.86
84.51,16.54,3.85,136.24,176.59,136.24,176.59,36.89,14.74
85.98,17.01,3.96,145.55,182.33,145.55,182.33,36.41,14.62
87.44,17.47,4.06,154.92,188.19,154.92,188.19,35.93,14.49
88.90,17.93,4.17,164.26,194.01,164.26,194.01,35.43,14.35
90.35,18.40,4.28,173.63,199.86,173.63,199.86,34.92,14.21
91.81,18.86,4.39,183.02,205.68,183.02,205.68,34.40,14.06
93.27,19.33,4.50,192.51,211.53,192.51,211.53,33.86,13.91
94.73,19.80,4.61,201.99,217.45,201.99,217.45,33.31,13.75
96.20,20.27,4.71,211.47,223.42,211.47,223.42,32.74,13.59
97.66,20.74,4.82,220.94,229.29,220.94,229.29,32.16,13.41
99.12,21.22,4.93,230.49,235.27,230.49,235.27,31.57,13.24
100.59,21.69,5.04,240.01,241.12,240.01,241.12,30.96,13.06
102.05,22.16,5.15,249.48,247.12,249.48,247.12,30.34,12.87
103.51,22.63,5.26,259.00,253.01,259.00,253.01,29.71,12.68
104.96,23.10,5.37,268.39,258.90,268.39,258.90,29.07,12.48
106.40,23.56,5.48,277.83,264.69,277.83,264.69,28.41,12.28
107.87,24.03,5.59,287.34,270.64,287.34,270.64,27.74,12.07
109.33,24.50,5.70,296.71,276.47,296.71,276.47,27.05,11.85
110.79,24.97,5.81,306.21,282.39,306.21,282.39,26.35,11.63
112.26,25.43,5.91,315.65,288.26,315.65,288.26,25.64,11.40
113.72,25.90,6.02,324.96,294.07,324.96,294.07,24.91,11.17
115.18,26.36,6.13,334.26,299.88,334.26,299.88,24.17,10.93
116.65,26.82,6.24,343.62,305.70,343.62,305.70,23.41,10.69
118.11,27.28,6.34,352.84,311.37,352.84,311.37,22.65,10.44
119.58,27.73,6.45,361.98,317.20,361.98,317.20,21.86,10.18
121.03,28.18,6.55,371.11,322.72,371.11,322.72,21.07,9.93
122.49,28.63,6.66,380.09,328.34,380.09,328.34,20.26,9.66
123.95,29.08,6.76,389.09,334.01,389.09,334.01,19.45,9.39
125.40,29.52,6.86,397.93,339.54,397.93,339.54,18.62,9.11
126.86,29.95,6.97,406.77,345.03,406.77,345.03,17.77,8.83
128.32,30.39,7.07,415.48,350.42,415.48,350.42,16.91,8.54
129.78,30.82,7.17,424.22,355.94,424.22,355.94,16.03,8.25
131.25,31.25,7.27,432.93,361.31,432.93,361.31,15.15,7.95
132.71,31.67,7.37,441.41,366.59,441.41,366.59,14.24,7.64
134.17,32.09,7.46,449.90,371.88,449.90,371.88,13.33,7.33
135.62,32.50,7.56,458.19,377.04,458.19,377.04,12.41,7.01
137.07,32.91,7.65,466.42,382.20,466.42,382.20,11.47,6.69
138.52,33.31,7.75,474.51,387.13,474.51,387.13,10.52,6.37
139.99,33.71,7.84,482.61,392.26,482.61,392.26,9.55,6.03
141.45,34.10,7.93,490.54,397.16,490.54,397.16,8.57,5.69
142.91,34.49,8.02,498.32,402.02,498.32,402.02,7.58,5.35
144.36,34.87,8.11,506.05,406.79,506.05,406.79,6.57,5.00
145.82,35.24,8.20,513.49,411.44,513.49,411.44,5.56,4.65
147.28,35.61,8.28,520.88,416.08,520.88,416.08,4.52,4.29
148.74,35.97,8.37,528.25,420.64,528.25,420.64,3.48,3.92
150.20,36.33,8.45,535.38,425.12,535.38,425.12,2.41,3.55
151.65,36.68,8.53,542.48,429.51,542.48,429.51,1.34,3.17
153.11,37.02,8.61,549.37,433.81,549.37,433.81,0.25,2.78
154.57,37.35,8.69,556.04,437.93,556.04,437.93,-0.84,2.40
156.02,37.68,8.76,562.62,442.07,562.62,442.07,-1.95,2.00
157.48,37.99,8.84,569.02,446.07,569.02,446.07,-3.08,1.60
158.93,38.31,8.91,575.33,450.00,575.33,450.00,-4.22,1.20
160.39,38.61,8.98,581.45,453.72,581.45,453.72,-5.37,0.79
161.85,38.90,9.05,587.38,457.42,587.38,457.42,-6.54,0.37
163.32,39.19,9.11,593.16,461.07,593.16,461.07,-7.73,-0.06
164.78,39.47,9.18,598.83,464.52,598.83,464.52,-8.92,-0.49
166.25,39.74,9.24,604.24,467.89,604.24,467.89,-10.14,-0.92
167.71,40.00,9.30,609.51,471.23,609.51,471.23,-11.36,-1.36
169.18,40.25,9.36,614.51,474.38,614.51,474.38,-12.60,-1.81
170.65,40.49,9.42,619.45,477.34,619.45,477.34,-13.86,-2.27
172.12,40.73,9.47,624.08,480.33,624.08,480.33,-15.13,-2.73
173.59,40.95,9.52,628.61,483.13,628.61,483.13,-16.42,-3.19
175.06,41.16,9.57,632.92,485.86,632.92,485.86,-17.72,-3.67
176.53,41.36,9.62,637.02,488.36,637.02,488.36,-19.03,-4.15
178.00,41.55,9.66,640.92,490.74,640.92,490.74,-20.36,-4.63
179.47,41.73,9.71,644.50,492.99,644.50,492.99,-21.69,-5.12
180.93,41.90,9.74,647.76,495.06,647.76,495.06,-23.04,-5.61
182.39,42.06,9.78,651.13,497.08,651.13,497.08,-24.40,-6.11
183.86,42.20,9.82,654.06,498.92,654.06,498.92,-25.78,-6.61
185.33,42.34,9.85,656.74,500.61,656.74,500.61,-27.17,-7.12
186.80,42.46,9.88,659.15,502.27,659.15,502.27,-28.58,-7.64
188.28,42.57,9.90,661.49,503.58,661.49,503.58,-30.01,-8.17
189.75,42.67,9.92,663.40,504.84,663.40,504.84,-31.44,-8.69
191.21,42.76,9.94,665.15,505.85,665.15,505.85,-32.88,-9.23
192.68,42.83,9.96,666.65,506.83,666.65,506.83,-34.34,-9.77
194.16,42.89,9.97,667.84,507.62,667.84,507.62,-35.83,-10.32
195.64,42.94,9.99,668.81,508.15,668.81,508.15,-37.32,-10.87
197.12,42.97,9.99,669.50,508.62,669.50,508.62,-38.83,-11.43
198.59,42.99,10.00,669.86,508.85,669.86,508.85,-40.35,-11.99
200.06,43.00,10.00,670.06,508.91,670.06,508.91,8.18,-35.17
201.40,43.00,10.00,670.11,508.78,670.11,508.78,8.17,-35.27
202.87,42.99,10.01,669.99,508.53,669.99,508.53,8.17,-35.38
204.34,42.97,10.02,669.91,508.07,669.91,508.07,8.17,-35.48
205.79,42.95,10.04,669.82,507.43,669.82,507.43,8.17,-35.57
207.26,42.92,10.06,669.55,506.66,669.55,506.66,8.18,-35.67
208.73,42.88,10.08,669.47,505.60,669.47,505.60,8.20,-35.75
210.20,42.84,10.11,669.27,504.38,669.27,504.38,8.22,-35.83
211.67,42.79,10.15,669.09,503.02,669.09,503.02,8.24,-35.91
213.13,42.74,10.19,668.78,501.52,668.78,501.52,8.27,-35.98
214.60,42.67,10.23,668.60,499.74,668.60,499.74,8.30,-36.05
216.06,42.61,10.28,668.31,497.88,668.31,497.88,8.34,-36.11
217.52,42.54,10.34,667.97,495.84,667.97,495.84,8.38,-36.17
218.99,42.46,10.39,667.53,493.58,667.53,493.58,8.43,-36.23
220.45,42.37,10.46,667.25,491.20,667.25,491.20,8.48,-36.27
221.92,42.28,10.52,666.96,488.60,666.96,488.60,8.53,-36.32
223.39,42.19,10.60,666.56,485.85,666.56,485.85,8.59,-36.36
224.85,42.09,10.67,666.13,482.99,666.13,482.99,8.66,-36.39
226.32,41.98,10.75,665.77,479.97,665.77,479.97,8.73,-36.42
227.78,41.87,10.84,665.38,476.79,665.38,476.79,8.80,-36.44
229.25,41.76,10.93,664.94,473.43,664.94,473.43,8.88,-36.46
230.72,41.64,11.02,664.48,469.99,664.48,469.99,8.97,-36.48
232.19,41.51,11.12,664.14,466.29,664.14,466.29,9.05,-36.49
233.66,41.38,11.22,663.61,462.43,663.61,462.43,9.15,-36.49
235.13,41.25,11.33,663.10,458.50,663.10,458.50,9.25,-36.49
236.59,41.11,11.44,662.74,454.43,662.74,454.43,9.35,-36.49
238.06,40.97,11.56,662.26,450.19,662.26,450.19,9.45,-36.48
239.53,40.82,11.68,661.90,445.84,661.90,445.84,9.57,-36.46
240.99,40.67,11.80,661.46,441.40,661.46,441.40,9.68,-36.44
242.45,40.52,11.93,660.94,436.78,660.94,436.78,9.80,-36.42
243.92,40.36,12.06,660.53,432.01,660.53,432.01,9.93,-36.39
245.38,40.20,12.19,660.12,427.17,660.12,427.17,10.05,-36.36
246.84,40.03,12.33,659.68,422.17,659.68,422.17,10.19,-36.32
248.31,39.86,12.48,659.21,417.01,659.21,417.01,10.33,-36.27
249.78,39.69,12.63,658.94,411.76,658.94,411.76,10.47,-36.23
251.25,39.51,12.78,658.53,406.37,658.53,406.37,10.62,-36.17
252.71,39.33,12.94,658.12,400.85,658.12,400.85,10.77,-36.11
254.18,39.15,13.10,657.71,395.19,657.71,395.19,10.93,-36.05
255.65,38.97,13.26,657.42,389.47,657.42,389.47,11.09,-35.98
257.12,38.78,13.43,657.20,383.59,657.20,383.59,11.26,-35.91
258.59,38.59,13.60,656.79,377.64,656.79,377.64,11.43,-35.83
260.07,38.39,13.78,656.52,371.62,656.52,371.62,11.60,-35.75
261.54,38.19,13.96,656.21,365.38,656.21,365.38,11.78,-35.67
263.01,38.00,14.15,656.00,359.15,656.00,359.15,11.97,-35.57
264.47,37.80,14.33,655.72,352.83,655.72,352.83,12.16,-35.48
265.94,37.59,14.52,655.59,346.29,655.59,346.29,12.35,-35.38
267.41,37.39,14.72,655.43,339.76,655.43,339.76,12.55,-35.27
268.88,37.18,14.92,655.39,333.10,655.39,333.10,12.76,-35.16
270.35,36.97,15.12,655.20,326.38,655.20,326.38,12.96,-35.04
271.81,36.76,15.33,655.11,319.49,655.11,319.49,13.18,-34.92
273.28,36.55,15.54,655.11,312.58,655.11,312.58,13.39,-34.80
274.75,36.33,15.75,655.09,305.52,655.09,305.52,13.62,-34.67
276.22,36.12,15.97,655.10,298.52,655.10,298.52,13.84,-34.53
277.68,35.90,16.19,655.15,291.29,655.15,291.29,14.07,-34.39
279.15,35.68,16.42,655.26,284.09,655.26,284.09,14.31,-34.25
280.61,35.46,16.65,655.40,276.68,655.40,276.68,14.55,-34.10
282.07,35.24,16.88,655.57,269.35,655.57,269.35,14.79,-33.94
283.54,35.02,17.11,655.89,261.83,655.89,261.83,15.04,-33.78
285.01,34.80,17.35,656.13,254.22,656.13,254.22,15.29,-33.62
286.48,34.58,17.60,656.45,246.68,656.45,246.68,15.55,-33.45
287.95,34.35,17.84,656.86,239.00,656.86,239.00,15.82,-33.28
289.41,34.13,18.09,657.28,231.30,657.28,231.30,16.08,-33.10
290.87,33.91,18.34,657.72,223.55,657.72,223.55,16.35,-32.92
292.34,33.68,18.60,658.29,215.61,658.29,215.61,16.63,-32.73
293.82,33.45,18.86,658.84,207.64,658.84,207.64,16.91,-32.53
295.29,33.23,19.12,659.45,199.64,659.45,199.64,17.20,-32.33
296.77,33.00,19.39,660.13,191.59,660.13,191.59,17.49,-32.13
298.23,32.78,19.66,660.91,183.45,660.91,183.45,17.79,-31.92
299.71,32.55,19.93,661.71,175.36,661.71,175.36,18.09,-31.71
301.17,32.33,20.21,662.50,167.15,662.50,167.15,18.39,-31.49
302.63,32.11,20.49,663.43,158.98,663.43,158.98,18.70,-31.27
304.10,31.89,20.77,664.44,150.71,664.44,150.71,19.01,-31.05
305.56,31.67,21.05,665.45,142.44,665.45,142.44,19.33,-30.81
307.03,31.44,21.34,666.52,134.07,666.52,134.07,19.66,-30.58
308.50,31.22,21.63,667.72,125.70,667.72,125.70,19.98,-30.34
309.96,31.01,21.93,668.98,117.29,668.98,117.29,20.31,-30.09
311.43,30.79,22.23,670.31,108.85,670.31,108.85,20.65,-29.84
312.90,30.57,22.53,671.65,100.29,671.65,100.29,20.99,-29.58
314.36,30.36,22.83,673.06,91.90,673.06,91.90,21.34,-29.32
315.82,30.14,23.14,674.64,83.44,674.64,83.44,21.69,-29.06
317.29,29.93,23.45,676.19,74.79,676.19,74.79,22.04,-28.79
318.77,29.72,23.76,677.91,66.26,677.91,66.26,22.40,-28.51
320.23,29.51,24.08,679.67,57.65,679.67,57.65,22.77,-28.23
321.70,29.30,24.40,681.51,49.15,681.51,49.15,23.14,-27.95
323.16,29.10,24.72,683.43,40.59,683.43,40.59,23.51,-27.66
324.63,28.90,25.04,685.40,31.84,685.40,31.84,23.89,-27.36
326.09,28.70,25.37,687.40,23.30,687.40,23.30,24.27,-27.07
327.54,28.50,25.69,689.66,14.67,689.66,14.67,24.65,-26.77
329.01,28.31,26.03,691.91,6.07,691.91,6.07,25.04,-26.46
330.47,28.12,26.36,694.16,-2.46,694.16,-2.46,25.44,-26.15
331.94,27.93,26.70,696.68,-11.20,696.68,-11.20,25.84,-25.83
333.41,27.74,27.04,699.14,-19.85,699.14,-19.85,26.25,-25.50
334.89,27.55,27.39,701.71,-28.58,701.71,-28.58,26.66,-25.17
336.37,27.37,27.74,704.56,-37.30,704.56,-37.30,27.08,-24.84
337.84,27.19,28.09,707.34,-45.95,707.34,-45.95,27.50,-24.50
339.31,27.02,28.44,710.23,-54.59,710.23,-54.59,27.92,-24.15
340.79,26.84,28.80,713.24,-63.28,713.24,-63.28,28.35,-23.80
342.26,26.68,29.15,716.34,-71.88,716.34,-71.88,28.79,-23.45
343.74,26.51,29.52,719.60,-80.50,719.60,-80.50,29.23,-23.09
345.21,26.35,29.88,722.90,-89.09,722.90,-89.09,29.67,-22.73
346.68,26.19,30.25,726.23,-97.63,726.23,-97.63,30.12,-22.36
348.16,26.04,30.62,729.80,-106.28,729.80,-106.28,30.58,-21.98
349.64,25.89,30.99,733.43,-114.76,733.43,-114.76,31.04,-21.61
351.12,25.74,31.36,737.20,-123.36,737.20,-123.36,31.50,-21.22
352.59,25.60,31.74,741.06,-131.74,741.06,-131.74,31.97,-20.83
354.06,25.46,32.12,744.99,-140.19,744.99,-140.19,32.44,-20.44
355.54,25.33,32.50,749.00,-148.61,749.00,-148.61,32.92,-20.04
357.01,25.20,32.88,753.17,-156.90,753.17,-156.90,33.40,-19.64
358.48,25.08,33.26,757.51,-165.24,757.51,-165.24,33.88,-19.24
359.96,24.96,33.65,761.95,-173.53,761.95,-173.53,34.38,-18.82
361.44,24.85,34.04,766.44,-181.93,766.44,-181.93,34.88,-18.40
362.92,24.74,34.44,771.21,-190.14,771.21,-190.14,35.38,-17.98
364.41,24.63,34.84,775.93,-198.31,775.93,-198.31,35.89,-17.55
365.89,24.53,35.24,780.92,-206.47,780.92,-206.47,36.40,-17.11
367.37,24.44,35.64,785.92,-214.58,785.92,-214.58,36.92,-16.67
368.85,24.35,36.04,791.05,-222.54,791.05,-222.54,37.44,-16.23
370.33,24.27,36.45,796.38,-230.62,796.38,-230.62,37.96,-15.78
371.81,24.20,36.85,801.83,-238.46,801.83,-238.46,38.50,-15.33
373.30,24.13,37.26,807.42,-246.32,807.42,-246.32,39.03,-14.87
374.77,24.06,37.67,813.05,-254.15,813.05,-254.15,39.57,-14.41
376.25,24.00,38.09,818.90,-261.81,818.90,-261.81,40.11,-13.94
377.72,23.95,38.50,824.75,-269.42,824.75,-269.42,40.66,-13.47
379.21,23.91,38.92,830.90,-277.11,830.90,-277.11,41.22,-12.99
380.69,23.87,39.34,837.15,-284.51,837.15,-284.51,41.78,-12.51
382.17,23.84,39.76,843.44,-291.97,843.44,-291.97,42.34,-12.02
383.66,23.81,40.18,850.01,-299.33,850.01,-299.33,42.91,-11.52
385.13,23.79,40.61,856.68,-306.60,856.68,-306.60,43.48,-11.03
386.61,23.78,41.04,863.46,-313.77,863.46,-313.77,44.06,-10.52
388.09,23.77,41.46,870.31,-320.92,870.31,-320.92,44.64,-10.02
389.57,23.77,41.89,877.38,-327.91,877.38,-327.91,45.22,-9.51
391.05,23.78,42.33,884.64,-334.81,884.64,-334.81,45.82,-8.99
392.52,23.80,42.76,892.10,-341.72,892.10,-341.72,46.41,-8.47
394.00,23.82,43.19,899.44,-348.40,899.44,-348.40,47.01,-7.94
395.47,23.85,43.63,907.22,-354.95,907.22,-354.95,47.61,-7.41
396.95,23.89,44.07,915.01,-361.55,915.01,-361.55,48.22,-6.88
398.43,23.94,44.51,923.03,-368.09,923.03,-368.09,48.84,-6.33
399.91,23.99,44.95,931.09,-374.42,931.09,-374.42,49.46,-5.79
401.39,24.00,45.00,931.98,-375.06,931.98,-375.06,-72.78,102.68
402.83,24.06,45.42,939.84,-381.03,939.84,-381.03,-72.60,102.20
404.32,24.13,45.83,947.64,-386.62,947.64,-386.62,-72.40,101.69
405.81,24.20,46.22,955.16,-391.73,955.16,-391.73,-72.19,101.17
407.29,24.27,46.58,962.13,-396.49,962.13,-396.49,-71.96,100.64
408.79,24.35,46.92,969.10,-400.75,969.10,-400.75,-71.72,100.09
410.27,24.43,47.23,975.65,-404.54,975.65,-404.54,-71.47,99.53
411.76,24.52,47.53,981.87,-407.85,981.87,-407.85,-71.21,98.95
413.25,24.61,47.79,987.74,-410.69,987.74,-410.69,-70.93,98.36
414.73,24.71,48.04,993.36,-413.25,993.36,-413.25,-70.64,97.76
416.21,24.81,48.26,998.61,-415.35,998.61,-415.35,-70.34,97.14
417.70,24.91,48.47,1003.60,-416.95,1003.60,-416.95,-70.02,96.51
419.19,25.02,48.65,1008.34,-418.20,1008.34,-418.20,-69.69,95.86
420.68,25.13,48.81,1012.78,-418.96,1012.78,-418.96,-69.35,95.20
422.17,25.24,48.95,1016.93,-419.46,1016.93,-419.46,-68.99,94.52
423.66,25.36,49.07,1020.89,-419.50,1020.89,-419.50,-68.62,93.83
425.14,25.48,49.17,1024.42,-419.13,1024.42,-419.13,-68.24,93.13
426.63,25.60,49.25,1027.78,-418.36,1027.78,-418.36,-67.84,92.41
428.13,25.73,49.31,1030.83,-417.28,1030.83,-417.28,-67.43,91.68
429.62,25.86,49.35,1033.68,-415.87,1033.68,-415.87,-67.01,90.93
431.12,26.00,49.37,1036.27,-414.01,1036.27,-414.01,-66.57,90.16
432.60,26.13,49.38,1038.48,-411.83,1038.48,-411.83,-66.12,89.39
434.10,26.27,49.36,1040.61,-409.27,1040.61,-409.27,-65.66,88.60
435.59,26.42,49.33,1042.36,-406.37,1042.36,-406.37,-65.18,87.79
437.08,26.56,49.28,1044.01,-403.18,1044.01,-403.18,-64.69,86.97
438.57,26.71,49.21,1045.34,-399.65,1045.34,-399.65,-64.19,86.14
440.06,26.86,49.13,1046.44,-395.79,1046.44,-395.79,-63.68,85.29
441.55,27.02,49.03,1047.35,-391.59,1047.35,-391.59,-63.15,84.43
443.04,27.17,48.91,1047.97,-387.12,1047.97,-387.12,-62.61,83.55
444.53,27.33,48.78,1048.31,-382.37,1048.31,-382.37,-62.05,82.66
446.03,27.49,48.63,1048.54,-377.30,1048.54,-377.30,-61.48,81.75
447.52,27.66,48.46,1048.53,-371.89,1048.53,-371.89,-60.90,80.84
449.01,27.82,48.28,1048.36,-366.29,1048.36,-366.29,-60.30,79.90
450.50,27.99,48.09,1047.94,-360.30,1047.94,-360.30,-59.70,78.95
451.98,28.16,47.88,1047.24,-354.15,1047.24,-354.15,-59.08,78.00
453.47,28.33,47.66,1046.46,-347.70,1046.46,-347.70,-58.45,77.03
454.96,28.51,47.43,1045.46,-340.98,1045.46,-340.98,-57.80,76.04
456.45,28.68,47.18,1044.26,-334.04,1044.26,-334.04,-57.14,75.03
457.94,28.86,46.92,1042.93,-326.83,1042.93,-326.83,-56.47,74.02
459.42,29.04,46.64,1041.39,-319.40,1041.39,-319.40,-55.78,72.99
460.91,29.22,46.35,1039.61,-311.79,1039.61,-311.79,-55.09,71.94
462.40,29.40,46.05,1037.68,-303.80,1037.68,-303.80,-54.37,70.88
463.89,29.59,45.74,1035.69,-295.75,1035.69,-295.75,-53.65,69.81
465.39,29.78,45.42,1033.42,-287.37,1033.42,-287.37,-52.90,68.71
466.88,29.96,45.09,1030.99,-278.94,1030.99,-278.94,-52.15,67.61
468.37,30.15,44.74,1028.41,-270.16,1028.41,-270.16,-51.39,66.49
469.87,30.34,44.38,1025.69,-261.16,1025.69,-261.16,-50.61,65.36
471.36,30.53,44.02,1022.87,-252.04,1022.87,-252.04,-49.81,64.21
472.85,30.72,43.64,1019.81,-242.78,1019.81,-242.78,-49.01,63.05
474.33,30.92,43.26,1016.74,-233.36,1016.74,-233.36,-48.19,61.88
475.83,31.11,42.86,1013.45,-223.65,1013.45,-223.65,-47.36,60.68
477.32,31.31,42.46,1009.97,-213.85,1009.97,-213.85,-46.51,59.48
478.82,31.50,42.05,1006.43,-203.96,1006.43,-203.96,-45.65,58.26
480.30,31.70,41.63,1002.80,-193.86,1002.80,-193.86,-44.78,57.03
481.79,31.89,41.20,999.05,-183.73,999.05,-183.73,-43.90,55.79
