--- Terminal on COM9 | 460800 8-N-1
--- Available filters and text transformations: colorize, debug, default, direct, hexlify, log2file, nocontrol, printable, send_on_enter, time
--- More details at https://bit.ly/pio-monitor-filters
--- Quit: Ctrl+C | Menu: Ctrl+T | Help: Ctrl+T followed by Ctrl+H
Fully Homed
BEGIN CSV
Time(ms),X_Target(cm),Y_Target(cm),Left_Error(deg),Right_Error(deg),Left_PID,Right_PID,Left_Feed_Forward,Right_Feed_Forward,X_Puck(cm),Y_Puck(cm)
0.01,6.99,5.08,0.00,-0.04,0.00,-0.04,33.60,19.32
1.40,7.00,5.08,0.18,0.02,0.18,0.02,33.90,19.46
2.95,7.02,5.08,0.32,0.28,0.32,0.28,34.23,19.62
4.46,7.05,5.09,0.85,0.79,0.85,0.79,34.54,19.76
5.99,7.10,5.09,1.36,0.43,1.36,0.43,34.83,19.90
7.52,7.16,5.10,1.57,1.32,1.57,1.32,35.12,20.03
9.05,7.24,5.11,2.69,1.98,2.69,1.98,35.39,20.15
10.58,7.33,5.12,3.17,1.89,3.17,1.89,35.65,20.27
12.11,7.44,5.13,3.64,3.06,3.64,3.06,35.89,20.38
13.65,7.55,5.15,4.95,3.49,4.95,3.49,36.12,20.48
15.18,7.68,5.16,5.29,3.75,5.29,3.75,36.34,20.57
16.72,7.83,5.18,6.53,5.32,6.53,5.32,36.55,20.66
18.25,7.98,5.20,7.78,5.57,7.78,5.57,36.74,20.74
19.79,8.15,5.21,8.33,6.42,8.33,6.42,36.92,20.82
21.33,8.33,5.24,10.24,8.00,10.24,8.00,37.09,20.89
22.85,8.52,5.26,11.04,8.33,11.04,8.33,37.24,20.95
24.39,8.73,5.28,12.06,9.72,12.06,9.72,37.38,21.00
25.91,8.94,5.31,13.95,11.14,13.95,11.14,37.50,21.05
27.44,9.16,5.33,14.37,11.60,14.37,11.60,37.62,21.09
28.99,9.40,5.36,16.27,13.35,16.27,13.35,37.72,21.12
30.53,9.65,5.39,17.72,14.49,17.72,14.49,37.81,21.14
32.07,9.91,5.42,18.02,15.02,18.02,15.02,37.88,21.16
33.61,10.18,5.45,20.36,16.90,20.36,16.90,37.94,21.17
35.15,10.46,5.48,20.62,17.49,20.62,17.49,37.99,21.18
36.69,10.75,5.52,21.77,18.42,21.77,18.42,38.02,21.17
38.25,11.05,5.55,23.63,20.11,23.63,20.11,38.04,21.16
39.79,11.35,5.59,22.88,20.16,22.88,20.16,38.05,21.14
41.33,11.67,5.62,25.18,21.30,25.18,21.30,38.04,21.12
42.87,12.00,5.66,25.20,22.00,25.20,22.00,38.02,21.09
44.40,12.33,5.70,25.32,22.20,25.32,22.20,37.99,21.05
45.94,12.67,5.74,27.05,23.24,27.05,23.24,37.94,21.00
47.48,13.02,5.78,25.89,23.56,25.89,23.56,37.88,20.95
49.03,13.38,5.82,27.18,23.83,27.18,23.83,37.81,20.89
50.57,13.75,5.86,27.30,24.19,27.30,24.19,37.72,20.82
52.11,14.12,5.91,26.16,24.26,26.16,24.26,37.62,20.75
53.66,14.50,5.95,27.00,24.48,27.00,24.48,37.51,20.66
55.20,14.89,6.00,26.19,24.42,26.19,24.42,37.38,20.58
56.74,15.29,6.04,25.69,24.37,25.69,24.37,37.24,20.48
58.28,15.69,6.09,25.28,24.30,25.28,24.30,37.09,20.38
59.83,16.10,6.14,24.25,23.96,24.25,23.96,36.92,20.27
61.38,16.52,6.19,23.75,23.99,23.75,23.99,36.74,20.15
62.93,16.94,6.23,22.82,23.32,22.82,23.32,36.55,20.02
64.48,17.36,6.28,21.92,22.66,21.92,22.66,36.34,19.89
66.03,17.80,6.33,20.54,22.71,20.54,22.71,36.12,19.75
67.58,18.24,6.39,19.76,21.69,19.76,21.69,35.88,19.60
69.12,18.68,6.44,18.79,21.11,18.79,21.11,35.64,19.45
70.68,19.13,6.49,16.96,20.69,16.96,20.69,35.37,19.29
72.23,19.58,6.54,16.22,19.61,16.22,19.61,35.10,19.12
73.78,20.04,6.59,14.46,19.33,14.46,19.33,34.81,18.94
75.33,20.50,6.65,12.90,18.61,12.90,18.61,34.51,18.76
76.88,20.96,6.70,12.14,17.57,12.14,17.57,34.19,18.57
78.43,21.43,6.76,10.17,17.09,10.17,17.09,33.86,18.37
79.97,21.90,6.81,9.13,16.32,9.13,16.32,33.52,18.17
81.52,22.38,6.87,7.86,15.45,7.86,15.45,33.16,17.96
83.07,22.85,6.92,6.23,14.77,6.23,14.77,32.79,17.74
84.62,23.33,6.98,5.12,14.01,5.12,14.01,32.41,17.51
86.17,23.81,7.03,3.62,13.30,3.62,13.30,32.01,17.28
87.71,24.29,7.09,2.42,12.56,2.42,12.56,31.61,17.04
89.25,24.78,7.14,1.07,11.57,1.07,11.57,31.19,16.79
90.79,25.26,7.20,-0.23,10.78,-0.23,10.78,30.75,16.54
92.34,25.75,7.26,-1.55,9.94,-1.55,9.94,30.30,16.28
93.90,26.24,7.31,-2.91,9.27,-2.91,9.27,29.84,16.01
95.44,26.73,7.37,-4.03,8.72,-4.03,8.72,29.36,15.73
96.99,27.23,7.43,-5.27,7.96,-5.27,7.96,28.87,15.45
98.55,27.72,7.49,-6.46,7.29,-6.46,7.29,28.36,15.16
100.10,28.21,7.54,-7.80,6.58,-7.80,6.58,27.84,14.86
101.64,28.70,7.60,-8.70,5.82,-8.70,5.82,27.31,14.55
103.18,29.19,7.66,-9.80,5.20,-9.80,5.20,26.77,14.24
104.73,29.68,7.71,-10.84,4.70,-10.84,4.70,26.21,13.92
106.28,30.18,7.77,-11.77,4.25,-11.77,4.25,25.64,13.60
107.84,30.67,7.83,-12.73,3.64,-12.73,3.64,25.05,13.26
109.39,31.16,7.89,-13.35,3.33,-13.35,3.33,24.45,12.92
110.95,31.65,7.94,-13.92,2.97,-13.92,2.97,23.84,12.57
112.50,32.14,8.00,-14.75,2.54,-14.75,2.54,23.21,12.21
114.05,32.62,8.05,-15.09,2.45,-15.09,2.45,22.57,11.85
115.60,33.10,8.11,-15.57,2.23,-15.57,2.23,21.92,11.48
117.15,33.58,8.17,-16.20,2.06,-16.20,2.06,21.25,11.10
118.70,34.06,8.22,-16.40,2.07,-16.40,2.07,20.57,10.72
120.25,34.53,8.28,-16.61,1.88,-16.61,1.88,19.88,10.33
121.80,35.00,8.33,-16.71,1.76,-16.71,1.76,19.17,9.93
123.35,35.47,8.39,-16.76,1.68,-16.76,1.68,18.45,9.52
124.91,35.94,8.44,-16.70,1.85,-16.70,1.85,17.71,9.10
126.45,36.40,8.49,-16.61,1.96,-16.61,1.96,16.97,8.69
128.00,36.85,8.55,-16.52,2.17,-16.52,2.17,16.21,8.26
129.56,37.31,8.60,-16.23,2.31,-16.23,2.31,15.43,7.82
131.11,37.75,8.65,-15.99,2.55,-15.99,2.55,14.64,7.38
132.67,38.20,8.70,-15.44,2.87,-15.44,2.87,13.83,6.93
134.22,38.64,8.75,-15.04,3.02,-15.04,3.02,13.02,6.47
135.77,39.07,8.80,-14.48,3.34,-14.48,3.34,12.19,6.01
137.31,39.49,8.85,-14.15,3.80,-14.15,3.80,11.35,5.54
138.86,39.91,8.90,-13.50,4.19,-13.50,4.19,10.50,5.06
140.40,40.33,8.95,-12.92,4.69,-12.92,4.69,9.63,4.58
141.95,40.74,9.00,-12.16,4.97,-12.16,4.97,8.75,4.08
143.50,41.14,9.04,-11.40,5.32,-11.40,5.32,7.86,3.58
145.05,41.54,9.09,-10.72,5.86,-10.72,5.86,6.95,3.08
146.60,41.92,9.13,-9.81,6.14,-9.81,6.14,6.03,2.56
148.15,42.31,9.18,-8.94,6.71,-8.94,6.71,5.09,2.04
149.69,42.68,9.22,-8.18,6.93,-8.18,6.93,4.15,1.52
151.23,43.05,9.26,-7.30,7.28,-7.30,7.28,3.19,0.98
152.78,43.41,9.31,-6.39,7.72,-6.39,7.72,2.21,0.44
154.32,43.76,9.35,-5.55,8.00,-5.55,8.00,1.22,-0.11
155.87,44.10,9.39,-4.73,8.24,-4.73,8.24,0.23,-0.66
157.41,44.43,9.43,-3.91,8.65,-3.91,8.65,-0.79,-1.23
158.98,44.76,9.46,-3.20,8.93,-3.20,8.93,-1.83,-1.80
160.52,45.08,9.50,-2.38,9.22,-2.38,9.22,-2.87,-2.38
162.08,45.39,9.54,-1.72,9.40,-1.72,9.40,-3.94,-2.97
163.63,45.68,9.57,-1.00,9.45,-1.00,9.45,-5.01,-3.56
165.19,45.97,9.60,-0.33,9.61,-0.33,9.61,-6.09,-4.17
166.74,46.25,9.64,0.26,9.69,0.26,9.69,-7.19,-4.78
168.29,46.52,9.67,0.78,9.74,0.78,9.74,-8.30,-5.39
169.83,46.78,9.70,1.43,9.74,1.43,9.74,-9.42,-6.01
171.38,47.02,9.73,1.92,9.73,1.92,9.73,-10.56,-6.64
172.93,47.26,9.75,2.41,9.54,2.41,9.54,-11.71,-7.27
174.48,47.48,9.78,2.87,9.51,2.87,9.51,-12.88,-7.92
176.03,47.70,9.80,3.14,9.24,3.14,9.24,-14.06,-8.57
177.57,47.90,9.83,3.52,8.99,3.52,8.99,-15.25,-9.23
179.12,48.09,9.85,3.78,8.82,3.78,8.82,-16.45,-9.89
180.67,48.27,9.87,3.87,8.45,3.87,8.45,-17.67,-10.56
182.23,48.43,9.89,4.24,8.29,4.24,8.29,-18.91,-11.25
183.78,48.59,9.91,4.34,7.86,4.34,7.86,-20.16,-11.93
185.33,48.73,9.92,4.41,7.44,4.41,7.44,-21.42,-12.63
186.89,48.86,9.94,4.68,7.04,4.68,7.04,-22.70,-13.33
188.44,48.97,9.95,4.42,6.56,4.42,6.56,-23.99,-14.04
189.99,49.07,9.96,4.59,6.22,4.59,6.22,-25.29,-14.76
191.55,49.16,9.97,4.58,5.90,4.58,5.90,-26.61,-15.49
193.10,49.23,9.98,4.13,5.33,4.13,5.33,-27.94,-16.22
194.65,49.29,9.99,4.81,4.81,4.81,4.81,-29.28,-16.96
196.21,49.33,9.99,4.10,4.31,4.10,4.31,-30.64,-17.71
197.75,49.36,10.00,4.24,3.79,4.24,3.79,-32.00,-18.45
199.30,49.38,10.00,4.28,3.56,4.28,3.56,-33.38,-19.21
200.85,49.38,10.00,3.63,3.06,3.63,3.06,-6.61,-11.80
202.29,49.38,10.00,4.15,2.93,4.15,2.93,-6.65,-11.97
203.83,49.37,10.00,4.33,2.86,4.33,2.86,-6.68,-12.16
205.38,49.36,10.00,4.54,2.75,4.54,2.75,-6.72,-12.35
206.92,49.34,10.01,4.68,2.62,4.68,2.62,-6.75,-12.54
208.48,49.32,10.01,5.04,2.42,5.04,2.42,-6.77,-12.72
210.02,49.29,10.01,5.33,2.27,5.33,2.27,-6.79,-12.91
211.57,49.26,10.02,5.33,2.06,5.33,2.06,-6.81,-13.09
213.12,49.22,10.02,5.52,1.64,5.52,1.64,-6.83,-13.27
214.67,49.18,10.03,5.57,1.22,5.57,1.22,-6.83,-13.45
216.22,49.13,10.04,5.30,0.81,5.30,0.81,-6.84,-13.63
217.77,49.08,10.04,5.33,0.25,5.33,0.25,-6.84,-13.81
219.31,49.02,10.05,4.96,-0.23,4.96,-0.23,-6.84,-13.98
220.87,48.96,10.06,4.71,-0.93,4.71,-0.93,-6.83,-14.16
222.43,48.89,10.07,4.54,-1.69,4.54,-1.69,-6.82,-14.33
223.99,48.82,10.08,3.88,-2.49,3.88,-2.49,-6.80,-14.51
225.55,48.75,10.10,3.56,-3.31,3.56,-3.31,-6.78,-14.68
227.11,48.67,10.11,2.92,-4.05,2.92,-4.05,-6.76,-14.85
228.66,48.58,10.12,2.27,-5.04,2.27,-5.04,-6.73,-15.02
230.22,48.50,10.14,1.88,-5.99,1.88,-5.99,-6.69,-15.18
231.78,48.40,10.16,0.72,-6.82,0.72,-6.82,-6.66,-15.35
233.34,48.31,10.18,0.32,-7.94,0.32,-7.94,-6.61,-15.52
234.90,48.21,10.19,-0.47,-9.05,-0.47,-9.05,-6.57,-15.68
236.45,48.10,10.21,-1.53,-9.91,-1.53,-9.91,-6.52,-15.85
238.02,47.99,10.24,-1.73,-11.05,-1.73,-11.05,-6.46,-16.01
239.58,47.88,10.26,-3.15,-11.87,-3.15,-11.87,-6.41,-16.17
241.16,47.76,10.28,-3.53,-12.81,-3.53,-12.81,-6.34,-16.33
242.74,47.64,10.31,-4.26,-13.95,-4.26,-13.95,-6.27,-16.49
244.32,47.51,10.33,-5.44,-14.52,-5.44,-14.52,-6.20,-16.65
245.90,47.38,10.36,-5.32,-15.53,-5.32,-15.53,-6.13,-16.81
247.48,47.25,10.39,-6.76,-16.21,-6.76,-16.21,-6.04,-16.96
249.05,47.11,10.42,-6.67,-16.62,-6.67,-16.62,-5.96,-17.12
250.63,46.97,10.45,-7.57,-17.55,-7.57,-17.55,-5.87,-17.27
252.20,46.83,10.49,-8.05,-17.83,-8.05,-17.83,-5.78,-17.42
253.78,46.68,10.52,-7.85,-18.35,-7.85,-18.35,-5.68,-17.57
255.36,46.53,10.56,-9.01,-19.02,-9.01,-19.02,-5.58,-17.72
256.93,46.38,10.60,-8.62,-18.73,-8.62,-18.73,-5.47,-17.87
258.51,46.22,10.64,-9.24,-19.55,-9.24,-19.55,-5.36,-18.01
260.09,46.06,10.68,-9.64,-19.23,-9.64,-19.23,-5.24,-18.16
261.67,45.89,10.72,-9.13,-19.22,-9.13,-19.22,-5.12,-18.30
263.25,45.73,10.76,-9.76,-19.54,-9.76,-19.54,-5.00,-18.45
264.83,45.56,10.81,-9.16,-18.75,-9.16,-18.75,-4.87,-18.59
266.40,45.39,10.85,-9.19,-19.04,-9.19,-19.04,-4.74,-18.73
267.98,45.21,10.90,-9.13,-18.67,-9.13,-18.67,-4.60,-18.86
269.56,45.03,10.95,-8.43,-17.58,-8.43,-17.58,-4.46,-19.00
271.13,44.85,11.01,-8.72,-17.77,-8.72,-17.77,-4.31,-19.14
272.70,44.67,11.06,-7.98,-16.61,-7.98,-16.61,-4.16,-19.27
274.28,44.48,11.11,-7.58,-16.15,-7.58,-16.15,-4.01,-19.40
275.85,44.29,11.17,-7.26,-15.94,-7.26,-15.94,-3.85,-19.53
277.43,44.10,11.23,-6.38,-14.42,-6.38,-14.42,-3.69,-19.67
279.01,43.91,11.29,-6.12,-14.12,-6.12,-14.12,-3.52,-19.79
280.58,43.71,11.35,-5.45,-13.07,-5.45,-13.07,-3.35,-19.92
282.16,43.51,11.42,-4.79,-11.92,-4.79,-11.92,-3.17,-20.05
283.73,43.31,11.49,-4.22,-11.50,-4.22,-11.50,-2.99,-20.17
285.31,43.11,11.55,-3.44,-10.10,-3.44,-10.10,-2.81,-20.30
286.88,42.90,11.62,-2.65,-9.15,-2.65,-9.15,-2.62,-20.42
288.46,42.70,11.70,-2.20,-8.50,-2.20,-8.50,-2.42,-20.54
290.02,42.49,11.77,-1.50,-7.18,-1.50,-7.18,-2.23,-20.66
291.58,42.28,11.84,-0.78,-6.43,-0.78,-6.43,-2.03,-20.78
293.15,42.07,11.92,-0.18,-5.44,-0.18,-5.44,-1.82,-20.89
294.71,41.86,12.00,0.59,-4.47,0.59,-4.47,-1.62,-21.01
296.27,41.64,12.08,1.12,-3.69,1.12,-3.69,-1.40,-21.12
297.83,41.43,12.17,1.52,-2.79,1.52,-2.79,-1.19,-21.23
299.39,41.21,12.25,2.28,-1.97,2.28,-1.97,-0.96,-21.34
300.94,40.99,12.34,2.46,-1.16,2.46,-1.16,-0.74,-21.45
302.51,40.77,12.43,3.08,-0.56,3.08,-0.56,-0.51,-21.56
304.06,40.55,12.52,3.38,0.27,3.38,0.27,-0.28,-21.67
305.60,40.33,12.61,3.63,0.82,3.63,0.82,-0.04,-21.77
307.15,40.10,12.71,4.16,1.24,4.16,1.24,0.20,-21.88
308.69,39.88,12.81,4.22,1.70,4.22,1.70,0.44,-21.98
310.23,39.66,12.90,4.26,2.21,4.26,2.21,0.69,-22.08
311.78,39.43,13.01,4.51,2.45,4.51,2.45,0.94,-22.18
313.32,39.20,13.11,4.46,2.72,4.46,2.72,1.20,-22.28
314.86,38.98,13.21,4.48,2.87,4.48,2.87,1.46,-22.37
316.41,38.75,13.32,4.49,2.93,4.49,2.93,1.72,-22.47
317.96,38.52,13.43,4.28,3.03,4.28,3.03,1.99,-22.56
319.50,38.29,13.55,4.05,2.84,4.05,2.84,2.26,-22.66
321.04,38.06,13.66,3.72,2.71,3.72,2.71,2.54,-22.75
322.58,37.83,13.78,3.18,2.48,3.18,2.48,2.82,-22.84
324.13,37.59,13.90,2.91,2.10,2.91,2.10,3.11,-22.93
325.67,37.36,14.02,2.35,1.77,2.35,1.77,3.40,-23.01
327.21,37.13,14.15,1.87,1.30,1.87,1.30,3.69,-23.10
328.76,36.89,14.27,1.34,0.77,1.34,0.77,3.99,-23.19
330.30,36.66,14.40,0.48,0.32,0.48,0.32,4.29,-23.27
331.84,36.43,14.54,0.07,-0.32,0.07,-0.32,4.59,-23.35
333.38,36.19,14.67,-0.62,-1.02,-0.62,-1.02,4.90,-23.43
334.93,35.95,14.81,-1.65,-1.58,-1.65,-1.58,5.22,-23.52
336.50,35.72,14.95,-1.98,-2.34,-1.98,-2.34,5.54,-23.60
338.07,35.48,15.09,-3.04,-3.28,-3.04,-3.28,5.87,-23.67
339.63,35.24,15.24,-3.61,-3.78,-3.61,-3.78,6.20,-23.75
341.19,35.00,15.39,-4.23,-4.69,-4.23,-4.69,6.54,-23.83
342.76,34.76,15.54,-5.35,-5.40,-5.35,-5.40,6.88,-23.90
344.32,34.52,15.70,-5.35,-6.14,-5.35,-6.14,7.22,-23.98
345.89,34.29,15.86,-6.42,-7.12,-6.42,-7.12,7.57,-24.05
347.45,34.05,16.02,-6.93,-7.75,-6.93,-7.75,7.92,-24.12
349.01,33.81,16.18,-7.31,-8.44,-7.31,-8.44,8.28,-24.19
350.58,33.57,16.35,-8.36,-9.14,-8.36,-9.14,8.64,-24.26
352.15,33.34,16.52,-8.01,-9.89,-8.01,-9.89,9.01,-24.33
353.71,33.10,16.69,-8.97,-10.32,-8.97,-10.32,9.37,-24.39
355.27,32.87,16.86,-9.48,-10.97,-9.48,-10.97,9.75,-24.45
356.85,32.63,17.04,-9.12,-11.53,-9.12,-11.53,10.13,-24.52
358.42,32.40,17.22,-10.39,-11.78,-10.39,-11.78,10.51,-24.58
360.00,32.16,17.41,-9.63,-12.63,-9.63,-12.63,10.90,-24.64
361.57,31.93,17.60,-10.44,-12.64,-10.44,-12.64,11.30,-24.70
363.14,31.69,17.79,-10.56,-13.03,-10.56,-13.03,11.69,-24.76
364.72,31.46,17.98,-9.93,-13.70,-9.93,-13.70,12.10,-24.82
366.29,31.23,18.18,-10.92,-13.44,-10.92,-13.44,12.50,-24.87
367.86,31.00,18.38,-9.89,-14.23,-9.89,-14.23,12.91,-24.93
369.43,30.77,18.58,-10.39,-14.35,-10.39,-14.35,13.33,-24.98
371.01,30.54,18.79,-10.14,-14.10,-10.14,-14.10,13.75,-25.03
372.58,30.32,19.00,-9.38,-14.93,-9.38,-14.93,14.17,-25.08
374.16,30.09,19.21,-10.23,-14.37,-10.23,-14.37,14.60,-25.13
375.73,29.87,19.43,-8.79,-14.57,-8.79,-14.57,15.03,-25.18
377.31,29.65,19.65,-9.10,-14.83,-9.10,-14.83,15.47,-25.22
378.88,29.43,19.87,-8.80,-14.18,-8.80,-14.18,15.91,-25.27
380.46,29.21,20.10,-7.70,-14.63,-7.70,-14.63,16.35,-25.31
382.02,28.99,20.32,-8.33,-14.35,-8.33,-14.35,16.80,-25.35
383.60,28.78,20.56,-6.84,-14.16,-6.84,-14.16,17.26,-25.39
385.17,28.56,20.79,-6.99,-14.23,-6.99,-14.23,17.71,-25.43
386.75,28.35,21.03,-6.42,-13.77,-6.42,-13.77,18.18,-25.47
388.32,28.14,21.28,-5.18,-13.70,-5.18,-13.70,18.64,-25.51
389.89,27.93,21.52,-5.66,-13.50,-5.66,-13.50,19.11,-25.55
391.46,27.73,21.77,-4.22,-13.16,-4.22,-13.16,19.59,-25.58
393.03,27.52,22.02,-3.99,-12.80,-3.99,-12.80,20.06,-25.61
394.60,27.32,22.28,-3.55,-12.55,-3.55,-12.55,20.55,-25.64
396.18,27.12,22.54,-2.36,-12.21,-2.36,-12.21,21.04,-25.68
397.75,26.92,22.80,-2.43,-11.79,-2.43,-11.79,21.53,-25.70
399.32,26.73,23.07,-1.07,-11.65,-1.07,-11.65,22.03,-25.73
400.89,26.54,23.34,-0.72,-10.91,-0.72,-10.91,22.53,-25.76
402.47,26.35,23.62,-0.08,-10.58,-0.08,-10.58,23.03,-25.78
404.03,26.16,23.89,0.89,-10.27,0.89,-10.27,23.54,-25.81
405.59,25.98,24.17,1.17,-9.63,1.17,-9.63,24.05,-25.83
407.16,25.80,24.46,2.28,-9.51,2.28,-9.51,24.56,-25.85
408.72,25.62,24.74,2.74,-8.94,2.74,-8.94,25.08,-25.87
410.28,25.44,25.03,3.34,-8.52,3.34,-8.52,25.60,-25.89
411.83,25.27,25.33,3.97,-8.11,3.97,-8.11,26.13,-25.91
413.40,25.10,25.63,4.58,-7.64,4.58,-7.64,26.66,-25.92
414.95,24.93,25.93,5.17,-7.25,5.17,-7.25,27.19,-25.94
416.52,24.77,26.23,5.47,-6.66,5.47,-6.66,27.74,-25.95
418.07,24.61,26.54,6.27,-6.51,6.27,-6.51,28.27,-25.96
419.63,24.45,26.85,6.32,-6.15,6.32,-6.15,28.82,-25.97
421.19,24.30,27.17,7.02,-5.72,7.02,-5.72,29.38,-25.98
422.74,24.14,27.49,7.43,-5.59,7.43,-5.59,29.93,-25.99
424.30,24.00,27.82,7.17,-5.39,7.17,-5.39,30.49,-26.00
425.85,23.85,28.14,7.86,-5.17,7.86,-5.17,31.05,-26.00
427.40,23.71,28.47,7.67,-5.30,7.67,-5.30,31.62,-26.01
428.95,23.57,28.81,7.88,-5.34,7.88,-5.34,32.18,-26.01
430.51,23.44,29.14,8.19,-5.13,8.19,-5.13,32.76,-26.01
432.06,23.31,29.49,7.45,-5.26,7.45,-5.26,33.34,-26.01
433.62,23.18,29.84,7.91,-5.40,7.91,-5.40,33.92,-26.01
435.17,23.06,30.19,7.14,-5.08,7.14,-5.08,34.51,-26.01
436.72,22.94,30.54,6.87,-5.58,6.87,-5.58,35.10,-26.00
438.27,22.82,30.90,6.92,-5.72,6.92,-5.72,35.70,-26.00
439.82,22.71,31.26,6.25,-5.79,6.25,-5.79,36.30,-25.99
441.38,22.60,31.63,6.06,-6.69,6.06,-6.69,36.90,-25.98
442.93,22.50,32.00,5.38,-6.44,5.38,-6.44,37.51,-25.98
444.48,22.40,32.38,4.79,-6.89,4.79,-6.89,38.12,-25.97
446.04,22.30,32.76,4.20,-7.57,4.20,-7.57,38.74,-25.95
447.58,22.21,33.14,3.59,-7.31,3.59,-7.31,39.36,-25.94
449.15,22.12,33.53,2.90,-8.07,2.90,-8.07,39.99,-25.93
450.70,22.04,33.92,2.16,-8.49,2.16,-8.49,40.62,-25.91
452.26,21.96,34.32,1.62,-8.65,1.62,-8.65,41.25,-25.90
453.82,21.88,34.72,0.69,-9.41,0.69,-9.41,41.89,-25.88
455.38,21.81,35.13,-0.04,-9.60,-0.04,-9.60,42.54,-25.86
456.93,21.75,35.54,-0.63,-9.98,-0.63,-9.98,43.18,-25.84
458.50,21.69,35.96,-1.80,-10.54,-1.80,-10.54,43.84,-25.82
460.06,21.63,36.38,-2.05,-10.81,-2.05,-10.81,44.50,-25.79
461.63,21.58,36.80,-3.32,-11.23,-3.32,-11.23,45.16,-25.77
463.20,21.53,37.24,-3.91,-11.65,-3.91,-11.65,45.84,-25.74
464.78,21.49,37.67,-4.50,-11.87,-4.50,-11.87,46.51,-25.72
466.35,21.45,38.12,-5.43,-11.99,-5.43,-11.99,47.19,-25.69
467.93,21.42,38.56,-5.91,-12.16,-5.91,-12.16,47.88,-25.66
469.50,21.39,39.01,-6.83,-12.38,-6.83,-12.38,48.57,-25.63
471.07,21.37,39.47,-7.16,-12.36,-7.16,-12.36,49.26,-25.59
472.64,21.35,39.93,-7.78,-12.43,-7.78,-12.43,49.96,-25.56
474.22,21.34,40.39,-8.29,-12.15,-8.29,-12.15,50.66,-25.53
475.80,21.33,40.87,-8.55,-12.04,-8.55,-12.04,51.37,-25.49
477.37,21.33,41.34,-9.02,-11.88,-9.02,-11.88,52.08,-25.45
478.95,21.33,41.82,-9.13,-11.30,-9.13,-11.30,52.79,-25.41
480.53,21.34,42.31,-9.22,-11.13,-9.22,-11.13,53.52,-25.37
482.11,21.36,42.80,-9.28,-10.47,-9.28,-10.47,54.24,-25.33
483.68,21.38,43.29,-9.05,-9.85,-9.05,-9.85,54.97,-25.29
485.26,21.41,43.79,-8.90,-9.29,-8.90,-9.29,55.71,-25.24
486.82,21.44,44.29,-8.50,-8.24,-8.50,-8.24,56.44,-25.20
488.39,21.48,44.80,-8.13,-7.90,-8.13,-7.90,57.18,-25.15
489.96,21.52,45.31,-7.36,-7.07,-7.36,-7.07,57.92,-25.10
491.52,21.57,45.82,-7.22,-6.11,-7.22,-6.11,58.66,-25.05
493.09,21.63,46.35,-6.08,-5.49,-6.08,-5.49,59.42,-25.00
494.65,21.69,46.87,-5.94,-4.34,-5.94,-4.34,60.17,-24.95
496.23,21.76,47.41,-5.40,-3.41,-5.40,-3.41,60.93,-24.90
497.80,21.84,47.94,-4.06,-2.56,-4.06,-2.56,61.70,-24.84
499.36,21.92,48.48,-4.55,-1.62,-4.55,-1.62,62.46,-24.79
500.93,22.00,49.00,-2.69,-0.24,-2.69,-0.24,-33.20,58.89
502.47,22.09,49.53,-2.78,0.71,-2.78,0.71,-33.39,58.91
504.02,22.18,50.05,-1.92,1.97,-1.92,1.97,-33.59,58.93
505.58,22.28,50.55,-1.58,2.05,-1.58,2.05,-33.78,58.94
507.15,22.38,51.04,0.87,3.77,0.87,3.77,-33.96,58.95
508.71,22.48,51.50,-0.54,4.32,-0.54,4.32,-34.14,58.95
510.26,22.58,51.95,0.46,6.11,0.46,6.11,-34.31,58.94
511.81,22.69,52.39,-0.03,9.25,-0.03,9.25,-34.47,58.93
513.36,22.80,52.80,-1.10,9.78,-1.10,9.78,-34.63,58.91
514.91,22.91,53.20,-0.65,12.61,-0.65,12.61,-34.78,58.88
516.48,23.02,53.59,-1.07,14.17,-1.07,14.17,-34.92,58.85
518.05,23.14,53.96,-0.52,13.84,-0.52,13.84,-35.06,58.81
519.61,23.26,54.31,-1.19,17.13,-1.19,17.13,-35.20,58.76
521.18,23.38,54.65,-0.72,17.79,-0.72,17.79,-35.33,58.71
522.75,23.50,54.98,-2.58,19.21,-2.58,19.21,-35.45,58.65
524.31,23.63,55.28,-2.72,22.80,-2.72,22.80,-35.56,58.59
525.88,23.75,55.58,-2.74,23.15,-2.74,23.15,-35.67,58.51
527.45,23.88,55.85,-5.67,25.45,-5.67,25.45,-35.77,58.44
529.02,24.02,56.11,-3.50,26.91,-3.50,26.91,-35.87,58.35
530.58,24.15,56.36,-6.20,26.86,-6.20,26.86,-35.96,58.26
532.15,24.29,56.59,-6.37,29.63,-6.37,29.63,-36.05,58.16
533.72,24.43,56.81,-6.23,30.59,-6.23,30.59,-36.12,58.06
535.28,24.57,57.01,-10.20,32.15,-10.20,32.15,-36.19,57.95
536.85,24.71,57.20,-8.73,35.03,-8.73,35.03,-36.26,57.83
538.42,24.85,57.37,-11.91,35.08,-11.91,35.08,-36.32,57.71
539.98,25.00,57.53,-12.28,36.60,-12.28,36.60,-36.37,57.58
541.55,25.15,57.68,-11.49,37.77,-11.49,37.77,-36.42,57.44
543.12,25.30,57.81,-14.89,37.82,-14.89,37.82,-36.46,57.30
544.69,25.45,57.93,-13.85,39.85,-13.85,39.85,-36.49,57.15
546.27,25.60,58.03,-16.58,40.39,-16.58,40.39,-36.52,56.99
547.84,25.76,58.12,-18.22,41.23,-18.22,41.23,-36.54,56.83
549.42,25.92,58.20,-18.41,42.71,-18.41,42.71,-36.56,56.66
550.99,26.08,58.27,-21.57,42.02,-21.57,42.02,-36.57,56.48
552.57,26.24,58.32,-20.87,43.09,-20.87,43.09,-36.57,56.30
554.13,26.40,58.36,-22.74,43.58,-22.74,43.58,-36.57,56.11
555.70,26.56,58.38,-24.29,43.04,-24.29,43.04,-36.56,55.92
557.27,26.73,58.40,-24.80,44.81,-24.80,44.81,-36.54,55.72
