--- Terminal on COM9 | 460800 8-N-1
--- Available filters and text transformations: colorize, debug, default, direct, hexlify, log2file, nocontrol, printable, send_on_enter, time
--- More details at https://bit.ly/pio-monitor-filters
--- Quit: Ctrl+C | Menu: Ctrl+T | Help: Ctrl+T followed by Ctrl+H
Fully Homed
BEGIN CSV
Time(ms),X_Target(cm),Y_Target(cm),Left_Error(deg),Right_Error(deg),Left_PID,Right_PID,Left_Feed_Forward,Right_Feed_Forward,X_Puck(cm),Y_Puck(cm)
0.01,6.99,5.08,-0.02,-0.07,-0.02,-0.07,64.18,-27.02
1.43,6.99,5.08,0.11,-0.03,0.11,-0.03,64.49,-26.73
3.00,7.01,5.10,0.78,-0.26,0.78,-0.26,64.82,-26.41
4.53,7.04,5.13,0.66,-0.07,0.66,-0.07,65.12,-26.10
6.07,7.07,5.17,0.33,1.32,0.33,1.32,65.42,-25.79
7.61,7.12,5.21,2.59,-0.11,2.59,-0.11,65.70,-25.48
9.15,7.17,5.27,2.02,0.40,2.02,0.40,65.97,-25.17
10.67,7.24,5.34,3.59,1.06,3.59,1.06,66.22,-24.86
12.21,7.31,5.42,5.44,-0.31,5.44,-0.31,66.46,-24.55
13.75,7.40,5.51,4.71,0.94,4.71,0.94,66.68,-24.23
15.29,7.49,5.61,7.64,1.02,7.64,1.02,66.90,-23.92
16.83,7.59,5.72,7.67,0.30,7.67,0.30,67.10,-23.61
18.36,7.70,5.84,8.38,2.31,8.38,2.31,67.28,-23.29
19.90,7.83,5.97,11.45,1.20,11.45,1.20,67.45,-22.98
21.44,7.96,6.11,10.52,0.98,10.52,0.98,67.61,-22.67
22.98,8.10,6.25,13.59,2.15,13.59,2.15,67.76,-22.35
24.54,8.24,6.41,14.47,0.97,14.47,0.97,67.89,-22.03
26.07,8.40,6.58,14.82,2.06,14.82,2.06,68.01,-21.71
27.60,8.56,6.75,18.07,2.47,18.07,2.47,68.12,-21.40
29.14,8.74,6.94,16.79,1.48,16.79,1.48,68.21,-21.08
30.68,8.92,7.13,19.26,2.92,19.26,2.92,68.29,-20.77
32.23,9.11,7.33,20.86,2.16,20.86,2.16,68.35,-20.45
33.78,9.31,7.54,21.23,2.00,21.23,2.00,68.40,-20.13
35.31,9.51,7.76,24.05,2.80,24.05,2.80,68.44,-19.81
36.85,9.72,7.98,23.34,1.93,23.34,1.93,68.46,-19.49
38.40,9.94,8.22,25.07,2.79,25.07,2.79,68.47,-19.17
39.94,10.17,8.46,26.35,2.89,26.35,2.89,68.47,-18.85
41.48,10.41,8.71,26.35,2.33,26.35,2.33,68.46,-18.53
43.03,10.65,8.97,27.86,2.90,27.86,2.90,68.43,-18.21
44.58,10.90,9.24,28.21,2.34,28.21,2.34,68.38,-17.89
46.13,11.16,9.51,29.31,2.39,29.31,2.39,68.32,-17.56
47.68,11.42,9.79,29.73,2.70,29.73,2.70,68.25,-17.24
49.23,11.70,10.08,30.04,2.35,30.04,2.35,68.17,-16.92
50.77,11.97,10.37,30.48,2.71,30.48,2.71,68.07,-16.59
52.32,12.26,10.67,30.86,2.41,30.86,2.41,67.96,-16.27
53.87,12.55,10.98,31.21,2.15,31.21,2.15,67.83,-15.94
55.42,12.85,11.29,31.45,2.30,31.45,2.30,67.69,-15.62
56.97,13.15,11.61,31.79,1.83,31.79,1.83,67.54,-15.29
58.52,13.46,11.94,31.54,1.87,31.54,1.87,67.37,-14.97
60.07,13.77,12.28,31.65,1.71,31.65,1.71,67.19,-14.64
61.62,14.09,12.62,31.20,1.54,31.20,1.54,67.00,-14.32
63.16,14.42,12.96,30.86,1.54,30.86,1.54,66.79,-13.99
64.71,14.75,13.31,30.76,1.26,30.76,1.26,66.57,-13.66
66.27,15.09,13.67,29.96,0.83,29.96,0.83,66.34,-13.33
67.82,15.43,14.03,29.85,1.08,29.85,1.08,66.09,-13.01
69.36,15.78,14.40,29.10,0.65,29.10,0.65,65.83,-12.68
70.90,16.13,14.77,28.35,0.71,28.35,0.71,65.55,-12.35
72.44,16.48,15.14,28.01,0.99,28.01,0.99,65.26,-12.02
73.99,16.84,15.52,26.95,0.70,26.95,0.70,64.96,-11.70
75.53,17.21,15.91,26.49,1.26,26.49,1.26,64.65,-11.37
77.08,17.58,16.30,25.73,1.29,25.73,1.29,64.32,-11.04
78.63,17.95,16.70,25.24,0.99,25.24,0.99,63.97,-10.71
80.17,18.33,17.09,23.83,1.85,23.83,1.85,63.62,-10.38
81.72,18.71,17.50,23.33,1.59,23.33,1.59,63.25,-10.04
83.27,19.10,17.91,22.46,1.75,22.46,1.75,62.86,-9.71
84.82,19.49,18.32,20.41,2.71,20.41,2.71,62.46,-9.38
86.37,19.89,18.74,20.52,1.96,20.52,1.96,62.05,-9.05
87.92,20.28,19.16,18.47,2.57,18.47,2.57,61.62,-8.72
89.47,20.68,19.58,17.39,3.00,17.39,3.00,61.19,-8.38
91.00,21.09,20.00,16.72,2.51,16.72,2.51,60.74,-8.05
92.54,21.49,20.43,14.28,3.54,14.28,3.54,60.27,-7.72
94.10,21.90,20.86,13.31,3.53,13.31,3.53,59.79,-7.39
95.64,22.31,21.30,11.57,2.97,11.57,2.97,59.30,-7.05
97.18,22.73,21.73,10.39,4.06,10.39,4.06,58.79,-6.72
98.72,23.15,22.17,8.28,3.67,8.28,3.67,58.27,-6.39
100.27,23.57,22.62,7.14,3.38,7.14,3.38,57.74,-6.05
101.82,23.99,23.06,5.57,4.33,5.57,4.33,57.19,-5.71
103.36,24.41,23.51,2.73,3.84,2.73,3.84,56.63,-5.38
104.91,24.84,23.96,2.52,3.92,2.52,3.92,56.06,-5.04
106.45,25.27,24.41,0.18,4.68,0.18,4.68,55.47,-4.71
107.99,25.70,24.86,-1.80,3.94,-1.80,3.94,54.87,-4.37
109.53,26.13,25.31,-2.62,4.05,-2.62,4.05,54.26,-4.04
111.08,26.57,25.77,-4.97,4.50,-4.97,4.50,53.63,-3.70
112.63,27.00,26.23,-6.45,3.95,-6.45,3.95,52.99,-3.36
114.17,27.44,26.69,-8.40,4.34,-8.40,4.34,52.33,-3.02
115.73,27.88,27.15,-9.60,4.73,-9.60,4.73,51.66,-2.68
117.28,28.32,27.61,-11.53,4.24,-11.53,4.24,50.97,-2.34
118.84,28.77,28.08,-13.25,4.66,-13.25,4.66,50.27,-2.00
120.38,29.21,28.54,-14.51,4.70,-14.51,4.70,49.56,-1.66
121.95,29.66,29.01,-16.38,4.57,-16.38,4.57,48.83,-1.31
123.51,30.10,29.48,-17.65,4.77,-17.65,4.77,48.08,-0.97
125.06,30.55,29.94,-19.25,4.87,-19.25,4.87,47.33,-0.63
126.62,30.99,30.41,-20.81,5.10,-20.81,5.10,46.56,-0.28
128.18,31.44,30.88,-22.25,5.20,-22.25,5.20,45.77,0.06
129.73,31.89,31.34,-23.58,5.33,-23.58,5.33,44.98,0.40
131.28,32.33,31.81,-24.81,5.42,-24.81,5.42,44.17,0.75
132.83,32.78,32.28,-25.77,5.47,-25.77,5.47,43.34,1.09
134.40,33.23,32.74,-26.79,5.67,-26.79,5.67,42.50,1.44
135.95,33.67,33.21,-27.66,5.81,-27.66,5.81,41.65,1.78
137.51,34.12,33.67,-28.54,5.87,-28.54,5.87,40.78,2.13
139.07,34.56,34.14,-29.62,6.37,-29.62,6.37,39.90,2.48
140.61,35.00,34.60,-30.01,6.57,-30.01,6.57,39.01,2.82
142.15,35.44,35.05,-30.49,6.66,-30.49,6.66,38.11,3.16
143.70,35.88,35.51,-31.03,7.20,-31.03,7.20,37.19,3.51
145.25,36.32,35.97,-31.17,7.35,-31.17,7.35,36.26,3.86
146.81,36.76,36.42,-31.56,7.50,-31.56,7.50,35.31,4.20
148.36,37.19,36.88,-31.49,7.95,-31.49,7.95,34.35,4.55
149.93,37.63,37.33,-31.66,8.15,-31.66,8.15,33.37,4.90
151.47,38.06,37.78,-31.40,8.58,-31.40,8.58,32.38,5.25
153.03,38.49,38.23,-31.46,8.96,-31.46,8.96,31.38,5.60
154.58,38.92,38.67,-31.12,9.18,-31.12,9.18,30.37,5.95
156.14,39.35,39.12,-30.82,9.87,-30.82,9.87,29.33,6.30
157.69,39.78,39.56,-30.67,10.15,-30.67,10.15,28.29,6.65
159.25,40.20,40.00,-29.72,10.51,-29.72,10.51,27.23,7.00
160.81,40.62,40.43,-29.37,11.09,-29.37,11.09,26.16,7.35
162.37,41.04,40.86,-28.61,11.39,-28.61,11.39,25.07,7.71
163.93,41.46,41.29,-27.76,11.91,-27.76,11.91,23.96,8.06
165.49,41.87,41.72,-27.13,12.29,-27.13,12.29,22.84,8.41
167.05,42.28,42.15,-26.16,12.55,-26.16,12.55,21.71,8.77
168.60,42.69,42.56,-25.34,13.17,-25.34,13.17,20.58,9.12
170.16,43.09,42.98,-24.28,13.50,-24.28,13.50,19.41,9.48
171.72,43.49,43.39,-23.35,13.70,-23.35,13.70,18.25,9.83
173.28,43.89,43.79,-21.94,14.38,-21.94,14.38,17.06,10.18
174.84,44.28,44.20,-21.04,14.52,-21.04,14.52,15.86,10.54
176.39,44.67,44.60,-19.88,14.94,-19.88,14.94,14.65,10.89
177.96,45.06,44.99,-18.54,15.40,-18.54,15.40,13.42,11.25
179.51,45.44,45.38,-17.96,15.24,-17.96,15.24,12.18,11.61
181.08,45.81,45.77,-15.98,15.82,-15.98,15.82,10.92,11.97
182.63,46.19,46.14,-15.25,16.00,-15.25,16.00,9.65,12.32
184.19,46.55,46.52,-13.98,15.72,-13.98,15.72,8.37,12.68
185.76,46.92,46.89,-12.53,16.27,-12.53,16.27,7.07,13.04
187.31,47.28,47.25,-11.95,15.98,-11.95,15.98,5.76,13.40
188.88,47.63,47.61,-10.29,15.99,-10.29,15.99,4.43,13.76
190.44,47.98,47.97,-9.50,16.47,-9.50,16.47,3.09,14.12
191.99,48.32,48.31,-8.68,15.81,-8.68,15.81,1.75,14.48
193.55,48.66,48.65,-7.49,15.89,-7.49,15.89,0.38,14.84
195.11,48.99,48.99,-6.53,15.88,-6.53,15.88,-0.99,15.20
196.67,49.32,49.32,-5.62,15.14,-5.62,15.14,-2.39,15.56
198.22,49.64,49.64,-4.76,15.32,-4.76,15.32,-3.79,15.92
199.79,49.96,49.96,-3.58,14.85,-3.58,14.85,-5.22,16.28
201.35,50.00,50.00,-12.15,14.22,-12.15,14.22,42.26,-19.03
202.81,50.29,50.29,-10.92,14.19,-10.92,14.19,41.87,-18.96
204.37,50.60,50.61,-10.15,13.74,-10.15,13.74,41.45,-18.88
205.94,50.91,50.93,-9.19,13.63,-9.19,13.63,41.01,-18.81
207.52,51.21,51.26,-8.86,12.99,-8.86,12.99,40.56,-18.73
209.09,51.52,51.59,-7.33,12.65,-7.33,12.65,40.11,-18.65
210.65,51.81,51.92,-6.24,11.73,-6.24,11.73,39.65,-18.56
212.22,52.11,52.26,-5.03,10.69,-5.03,10.69,39.18,-18.48
213.78,52.40,52.60,-3.19,9.99,-3.19,9.99,38.71,-18.40
215.34,52.69,52.94,-2.36,8.72,-2.36,8.72,38.23,-18.31
216.90,52.98,53.28,-0.85,8.18,-0.85,8.18,37.74,-18.22
218.45,53.26,53.62,-0.20,7.71,-0.20,7.71,37.25,-18.14
220.01,53.54,53.97,0.73,6.50,0.73,6.50,36.75,-18.05
221.54,53.81,54.32,2.01,5.78,2.01,5.78,36.24,-17.96
223.09,54.09,54.67,3.16,4.50,3.16,4.50,35.72,-17.87
224.64,54.35,55.02,4.32,3.11,4.32,3.11,35.20,-17.77
226.18,54.62,55.38,5.19,2.58,5.19,2.58,34.67,-17.68
227.74,54.88,55.74,6.26,1.20,6.26,1.20,34.13,-17.58
229.29,55.14,56.10,6.61,0.16,6.61,0.16,33.58,-17.49
230.84,55.40,56.46,7.59,-0.67,7.59,-0.67,33.03,-17.39
232.39,55.65,56.83,8.68,-2.22,8.68,-2.22,32.46,-17.29
233.96,55.90,57.20,9.01,-3.27,9.01,-3.27,31.89,-17.18
235.52,56.15,57.57,10.39,-4.45,10.39,-4.45,31.31,-17.08
237.08,56.39,57.94,10.25,-5.94,10.25,-5.94,30.71,-16.98
238.64,56.63,58.31,11.00,-6.62,11.00,-6.62,30.12,-16.87
240.21,56.87,58.69,11.46,-7.83,11.46,-7.83,29.51,-16.76
241.77,57.10,59.07,11.41,-8.85,11.41,-8.85,28.89,-16.65
243.34,57.33,59.45,12.34,-9.95,12.34,-9.95,28.27,-16.54
244.91,57.56,59.83,12.25,-11.46,12.25,-11.46,27.64,-16.43
246.48,57.78,60.21,12.95,-12.40,12.95,-12.40,27.00,-16.32
248.04,57.99,60.59,13.03,-13.36,13.03,-13.36,26.35,-16.20
249.62,58.21,60.98,13.05,-14.31,13.05,-14.31,25.69,-16.09
251.18,58.41,61.36,13.11,-14.96,13.11,-14.96,25.03,-15.97
252.75,58.62,61.75,12.90,-15.91,12.90,-15.91,24.36,-15.85
254.32,58.82,62.14,12.90,-16.59,12.90,-16.59,23.68,-15.73
255.89,59.01,62.52,12.78,-17.41,12.78,-17.41,22.99,-15.61
257.45,59.20,62.91,12.71,-18.12,12.71,-18.12,22.30,-15.49
259.02,59.39,63.30,12.37,-18.63,12.37,-18.63,21.59,-15.36
260.58,59.57,63.68,12.18,-19.12,12.18,-19.12,20.89,-15.24
262.16,59.75,64.07,11.35,-19.25,11.35,-19.25,20.16,-15.11
263.73,59.92,64.46,11.41,-19.59,11.41,-19.59,19.43,-14.98
265.31,60.09,64.85,10.64,-19.99,10.64,-19.99,18.70,-14.85
266.87,60.25,65.24,10.35,-20.04,10.35,-20.04,17.95,-14.72
268.44,60.41,65.62,10.25,-20.34,10.25,-20.34,17.20,-14.58
270.02,60.57,66.01,8.97,-20.20,8.97,-20.20,16.44,-14.45
271.58,60.71,66.39,9.14,-19.86,9.14,-19.86,15.68,-14.31
273.15,60.86,66.78,7.89,-19.56,7.89,-19.56,14.91,-14.18
274.72,60.99,67.17,7.29,-19.06,7.29,-19.06,14.12,-14.04
276.28,61.13,67.55,7.12,-18.65,7.12,-18.65,13.34,-13.90
277.85,61.25,67.93,5.96,-18.38,5.96,-18.38,12.54,-13.76
279.42,61.38,68.31,5.83,-17.74,5.83,-17.74,11.73,-13.62
280.99,61.49,68.70,4.97,-16.91,4.97,-16.91,10.91,-13.47
282.56,61.60,69.08,4.28,-16.25,4.28,-16.25,10.09,-13.33
284.12,61.71,69.45,3.56,-15.17,3.56,-15.17,9.27,-13.18
285.69,61.81,69.83,3.00,-13.95,3.00,-13.95,8.43,-13.03
287.24,61.91,70.20,2.38,-13.16,2.38,-13.16,7.59,-12.89
288.81,61.99,70.58,1.60,-12.00,1.60,-12.00,6.74,-12.74
290.35,62.08,70.94,1.35,-10.72,1.35,-10.72,5.89,-12.59
291.92,62.15,71.31,0.48,-9.67,0.48,-9.67,5.03,-12.43
293.48,62.23,71.68,0.06,-8.09,0.06,-8.09,4.15,-12.28
295.03,62.29,72.04,-0.60,-6.79,-0.60,-6.79,3.28,-12.12
296.58,62.35,72.40,-1.51,-5.32,-1.51,-5.32,2.40,-11.97
298.15,62.41,72.77,-1.78,-3.77,-1.78,-3.77,1.50,-11.81
299.72,62.46,73.13,-2.47,-2.34,-2.47,-2.34,0.59,-11.65
301.29,62.50,73.48,-3.02,-0.95,-3.02,-0.95,-0.33,-11.49
302.84,62.53,73.84,-3.62,0.64,-3.62,0.64,-1.24,-11.33
304.42,62.56,74.19,-4.20,2.12,-4.20,2.12,-2.18,-11.16
305.98,62.59,74.54,-4.98,3.64,-4.98,3.64,-3.11,-11.00
307.55,62.61,74.89,-5.64,5.20,-5.64,5.20,-4.06,-10.83
309.11,62.62,75.23,-6.13,6.83,-6.13,6.83,-5.01,-10.66
310.68,62.62,75.57,-6.97,7.99,-6.97,7.99,-5.97,-10.49
312.25,62.62,75.91,-7.43,9.28,-7.43,9.28,-6.95,-10.32
313.82,62.61,76.25,-8.41,10.53,-8.41,10.53,-7.93,-10.15
315.40,62.60,76.58,-9.08,11.58,-9.08,11.58,-8.92,-9.97
316.96,62.58,76.91,-9.91,12.82,-9.91,12.82,-9.91,-9.80
318.52,62.55,77.24,-10.99,13.77,-10.99,13.77,-10.91,-9.62
320.10,62.51,77.56,-11.71,14.49,-11.71,14.49,-11.92,-9.44
321.67,62.47,77.88,-12.73,15.41,-12.73,15.41,-12.94,-9.26
323.25,62.42,78.20,-13.57,16.11,-13.57,16.11,-13.98,-9.08
324.83,62.37,78.51,-14.62,16.48,-14.62,16.48,-15.02,-8.90
326.40,62.30,78.82,-15.59,17.21,-15.59,17.21,-16.07,-8.71
327.97,62.23,79.12,-16.79,17.80,-16.79,17.80,-17.11,-8.53
329.54,62.16,79.42,-17.45,17.71,-17.45,17.71,-18.17,-8.34
331.12,62.07,79.72,-18.64,18.51,-18.64,18.51,-19.25,-8.15
332.70,61.98,80.01,-19.66,18.08,-19.66,18.08,-20.32,-7.96
334.27,61.88,80.29,-20.32,18.34,-20.32,18.34,-21.41,-7.77
335.84,61.77,80.58,-22.08,18.75,-22.08,18.75,-22.50,-7.58
337.41,61.66,80.85,-21.76,17.48,-21.76,17.48,-23.60,-7.38
338.99,61.54,81.13,-23.94,18.44,-23.94,18.44,-24.72,-7.19
340.57,61.41,81.40,-24.15,17.15,-24.15,17.15,-25.83,-6.99
342.14,61.27,81.66,-25.25,16.69,-25.25,16.69,-26.96,-6.79
343.72,61.13,81.92,-27.10,17.26,-27.10,17.26,-28.09,-6.59
345.29,60.97,82.17,-26.14,14.87,-26.14,14.87,-29.23,-6.39
346.87,60.81,82.42,-29.33,16.02,-29.33,16.02,-30.38,-6.19
348.44,60.65,82.66,-27.62,14.20,-27.62,14.20,-31.54,-5.99
350.01,60.47,82.90,-30.05,13.25,-30.05,13.25,-32.70,-5.78
351.58,60.29,83.13,-30.29,13.57,-30.29,13.57,-33.87,-5.58
353.16,60.09,83.35,-29.81,11.27,-29.81,11.27,-35.05,-5.37
354.74,59.89,83.57,-32.36,11.81,-32.36,11.81,-36.25,-5.16
356.32,59.68,83.79,-30.32,10.29,-30.32,10.29,-37.45,-4.94
357.90,59.47,84.00,-33.30,9.04,-33.30,9.04,-38.66,-4.73
359.46,59.24,84.20,-31.81,8.45,-31.81,8.45,-39.86,-4.52
361.03,59.01,84.39,-32.55,6.50,-32.55,6.50,-41.08,-4.31
362.59,58.77,84.58,-33.15,5.86,-33.15,5.86,-42.30,-4.09
364.16,58.52,84.76,-30.95,4.76,-30.95,4.76,-43.53,-3.87
365.73,58.26,84.94,-33.41,3.35,-33.41,3.35,-44.77,-3.66
367.30,58.00,85.11,-31.07,2.57,-31.07,2.57,-46.02,-3.44
368.85,57.72,85.27,-31.98,1.79,-31.98,1.79,-47.26,-3.22
370.42,57.44,85.43,-31.26,0.51,-31.26,0.51,-48.53,-2.99
372.00,57.15,85.58,-29.85,-0.09,-29.85,-0.09,-49.80,-2.77
373.56,56.85,85.72,-30.66,-0.97,-30.66,-0.97,-51.08,-2.54
375.14,56.54,85.86,-28.40,-2.50,-28.40,-2.50,-52.37,-2.32
376.71,56.22,85.99,-28.78,-2.56,-28.78,-2.56,-53.67,-2.09
378.29,55.89,86.11,-26.83,-4.44,-26.83,-4.44,-54.98,-1.86
379.88,55.55,86.22,-25.79,-4.85,-25.79,-4.85,-56.31,-1.63
381.46,55.20,86.33,-25.16,-5.43,-25.16,-5.43,-57.64,-1.39
383.04,54.84,86.43,-23.74,-6.90,-23.74,-6.90,-58.97,-1.16
384.61,54.47,86.52,-23.17,-6.21,-23.17,-6.21,-60.31,-0.92
386.19,54.10,86.61,-21.44,-7.78,-21.44,-7.78,-61.67,-0.68
387.78,53.71,86.68,-20.05,-8.02,-20.05,-8.02,-63.03,-0.44
389.35,53.32,86.75,-18.99,-8.48,-18.99,-8.48,-64.39,-0.20
390.93,52.91,86.81,-17.29,-9.84,-17.29,-9.84,-65.77,0.04
392.51,52.50,86.86,-15.61,-9.08,-15.61,-9.08,-67.15,0.28
394.08,52.08,86.91,-14.83,-10.19,-14.83,-10.19,-68.54,0.53
395.65,51.65,86.94,-12.33,-10.18,-12.33,-10.18,-69.93,0.77
397.23,51.20,86.97,-12.07,-10.30,-12.07,-10.30,-71.34,1.02
398.79,50.76,86.99,-9.92,-11.41,-9.92,-11.41,-72.73,1.26
400.37,50.29,87.00,-8.50,-10.89,-8.50,-10.89,-74.16,1.52
401.94,50.00,87.00,-5.11,-8.66,-5.11,-8.66,-41.19,34.79
403.46,49.55,87.00,-1.79,-8.89,-1.79,-8.89,-40.86,34.93
405.03,49.09,86.98,-1.27,-8.66,-1.27,-8.66,-40.51,35.07
406.59,48.65,86.96,0.41,-8.72,0.41,-8.72,-40.16,35.20
408.16,48.21,86.93,2.29,-8.50,2.29,-8.50,-39.81,35.33
409.72,47.79,86.89,3.75,-8.18,3.75,-8.18,-39.46,35.46
411.29,47.37,86.85,5.89,-8.03,5.89,-8.03,-39.10,35.57
412.84,46.97,86.79,6.98,-7.91,6.98,-7.91,-38.75,35.69
414.39,46.57,86.73,8.68,-7.50,8.68,-7.50,-38.39,35.79
415.95,46.18,86.66,9.90,-7.40,9.90,-7.40,-38.04,35.89
417.50,45.81,86.59,11.04,-7.12,11.04,-7.12,-37.68,35.99
419.06,45.44,86.50,12.40,-6.78,12.40,-6.78,-37.31,36.08
420.61,45.08,86.41,13.55,-6.87,13.55,-6.87,-36.95,36.17
422.18,44.73,86.31,14.18,-6.32,14.18,-6.32,-36.58,36.25
423.75,44.38,86.20,15.18,-6.61,15.18,-6.61,-36.21,36.33
425.31,44.05,86.08,16.00,-6.97,16.00,-6.97,-35.84,36.40
426.86,43.73,85.96,16.12,-6.29,16.12,-6.29,-35.47,36.46
428.42,43.41,85.83,17.29,-6.70,17.29,-6.70,-35.09,36.52
429.99,43.10,85.70,17.21,-6.82,17.21,-6.82,-34.71,36.58
431.55,42.81,85.55,17.29,-6.28,17.29,-6.28,-34.33,36.63
433.12,42.51,85.40,18.28,-7.19,18.28,-7.19,-33.95,36.67
434.68,42.23,85.25,17.05,-6.85,17.05,-6.85,-33.56,36.71
436.24,41.96,85.08,17.72,-7.00,17.72,-7.00,-33.18,36.74
437.80,41.70,84.91,17.38,-7.89,17.38,-7.89,-32.79,36.77
439.36,41.44,84.74,16.37,-7.41,16.37,-7.41,-32.40,36.79
440.93,41.20,84.55,17.00,-7.91,17.00,-7.91,-32.01,36.81
442.47,40.96,84.37,15.33,-8.63,15.33,-8.63,-31.62,36.82
444.05,40.73,84.17,14.90,-8.31,14.90,-8.31,-31.22,36.83
445.61,40.50,83.97,14.49,-9.33,14.49,-9.33,-30.82,36.83
447.18,40.29,83.76,12.85,-9.62,12.85,-9.62,-30.42,36.83
448.75,40.08,83.55,12.49,-9.70,12.49,-9.70,-30.01,36.82
450.32,39.88,83.33,11.13,-10.48,11.13,-10.48,-29.61,36.81
451.88,39.69,83.10,10.00,-10.39,10.00,-10.39,-29.20,36.79
453.44,39.51,82.87,9.02,-10.79,9.02,-10.79,-28.79,36.76
455.01,39.34,82.64,7.45,-11.25,7.45,-11.25,-28.38,36.73
456.58,39.17,82.39,6.45,-11.06,6.45,-11.06,-27.97,36.70
458.13,39.01,82.15,5.21,-11.54,5.21,-11.54,-27.55,36.66
459.70,38.86,81.90,3.95,-11.56,3.95,-11.56,-27.14,36.61
461.26,38.72,81.64,2.87,-11.28,2.87,-11.28,-26.72,36.56
462.83,38.58,81.38,1.58,-11.34,1.58,-11.34,-26.29,36.51
464.40,38.46,81.11,0.36,-11.06,0.36,-11.06,-25.87,36.44
465.95,38.34,80.84,-0.67,-10.85,-0.67,-10.85,-25.45,36.38
467.53,38.22,80.56,-1.67,-10.60,-1.67,-10.60,-25.02,36.31
469.11,38.12,80.28,-2.65,-10.04,-2.65,-10.04,-24.58,36.23
470.69,38.02,79.99,-3.62,-9.67,-3.62,-9.67,-24.15,36.14
472.27,37.92,79.70,-4.59,-9.00,-4.59,-9.00,-23.71,36.06
473.82,37.84,79.41,-5.46,-8.34,-5.46,-8.34,-23.28,35.96
475.40,37.76,79.11,-6.25,-7.63,-6.25,-7.63,-22.83,35.86
476.97,37.69,78.80,-6.93,-6.79,-6.93,-6.79,-22.39,35.76
478.54,37.63,78.49,-7.41,-5.78,-7.41,-5.78,-21.95,35.65
480.11,37.58,78.18,-7.93,-4.96,-7.93,-4.96,-21.50,35.53
481.67,37.53,77.87,-8.43,-3.89,-8.43,-3.89,-21.06,35.41
483.24,37.49,77.55,-8.66,-2.89,-8.66,-2.89,-20.61,35.29
484.82,37.45,77.23,-9.31,-1.61,-9.31,-1.61,-20.16,35.16
486.39,37.42,76.90,-9.45,-0.33,-9.45,-0.33,-19.70,35.02
487.95,37.40,76.57,-9.75,0.90,-9.75,0.90,-19.25,34.88
489.50,37.39,76.24,-9.95,2.29,-9.95,2.29,-18.80,34.74
491.06,37.38,75.91,-9.53,3.33,-9.53,3.33,-18.34,34.58
492.63,37.38,75.57,-10.00,4.53,-10.00,4.53,-17.88,34.43
494.19,37.38,75.23,-9.38,5.81,-9.38,5.81,-17.42,34.27
495.75,37.39,74.89,-9.58,7.32,-9.58,7.32,-16.96,34.10
497.31,37.41,74.54,-9.71,8.64,-9.71,8.64,-16.49,33.93
498.87,37.44,74.19,-8.90,9.86,-8.90,9.86,-16.02,33.75
500.43,37.47,73.84,-9.46,11.10,-9.46,11.10,-15.56,33.57
502.00,37.50,73.49,-8.52,12.10,-8.52,12.10,-15.08,33.38
503.55,37.54,73.13,-8.17,13.25,-8.17,13.25,-14.61,33.18
505.12,37.59,72.77,-8.33,14.66,-8.33,14.66,-14.13,32.98
506.70,37.65,72.41,-7.15,15.23,-7.15,15.23,-13.65,32.78
508.26,37.71,72.04,-7.38,16.69,-7.38,16.69,-13.17,32.57
509.82,37.77,71.68,-6.76,17.69,-6.76,17.69,-12.69,32.35
511.39,37.85,71.31,-6.04,18.13,-6.04,18.13,-12.20,32.13
512.95,37.92,70.94,-5.71,19.68,-5.71,19.68,-11.72,31.91
514.52,38.01,70.57,-4.90,19.77,-4.90,19.77,-11.23,31.68
516.08,38.10,70.19,-4.32,20.72,-4.32,20.72,-10.74,31.44
517.65,38.19,69.82,-3.90,22.05,-3.90,22.05,-10.25,31.20
519.20,38.29,69.45,-3.21,21.63,-3.21,21.63,-9.76,30.95
520.77,38.40,69.07,-2.02,23.07,-2.02,23.07,-9.26,30.70
522.31,38.51,68.69,-1.95,23.67,-1.95,23.67,-8.77,30.45
523.88,38.62,68.31,-0.85,23.02,-0.85,23.02,-8.26,30.18
525.44,38.75,67.93,0.15,24.53,0.15,24.53,-7.76,29.92
526.99,38.87,67.55,-0.15,24.16,-0.15,24.16,-7.26,29.65
528.55,39.00,67.17,1.56,24.13,1.56,24.13,-6.76,29.37
530.10,39.14,66.79,1.66,24.92,1.66,24.92,-6.25,29.09
531.64,39.28,66.41,1.96,24.34,1.96,24.34,-5.75,28.80
533.20,39.43,66.03,3.81,24.37,3.81,24.37,-5.24,28.51
534.75,39.58,65.65,2.94,24.37,2.94,24.37,-4.73,28.21
536.31,39.73,65.26,4.28,23.96,4.28,23.96,-4.21,27.91
537.86,39.90,64.88,5.50,23.85,5.50,23.85,-3.70,27.60
539.42,40.06,64.50,4.61,23.29,4.61,23.29,-3.18,27.29
540.97,40.23,64.11,6.53,23.11,6.53,23.11,-2.66,26.97
542.52,40.41,63.73,6.33,22.22,6.33,22.22,-2.14,26.65
544.08,40.59,63.34,6.27,21.39,6.27,21.39,-1.61,26.32
545.64,40.77,62.96,7.97,21.28,7.97,21.28,-1.09,25.98
547.19,40.96,62.58,7.09,19.60,7.09,19.60,-0.56,25.64
548.74,41.15,62.19,7.98,18.99,7.98,18.99,-0.03,25.30
550.29,41.35,61.81,8.67,18.40,8.67,18.40,0.50,24.95
551.83,41.55,61.43,7.96,16.85,7.96,16.85,1.03,24.60
553.38,41.75,61.05,8.94,16.28,8.94,16.28,1.56,24.24
